,t_msec,hr
0,776.0,131.57894736842104
1,1400.0,96.15384615384617
2,1968.0,105.6338028169014
3,2636.0,89.8203592814371
4,3132.0,120.96774193548387
5,3808.0,88.75739644970417
6,4424.0,97.40259740259732
7,5072.0,92.59259259259264
8,5792.0,83.33333333333336
9,6400.0,98.6842105263157
10,6828.0,140.1869158878505
11,7572.0,80.6451612903226
12,8196.0,96.1538461538462
13,8920.0,82.87292817679555
14,9484.0,106.38297872340425
15,10148.0,90.36144578313257
16,10844.0,86.20689655172417
17,11476.0,94.93670886075928
18,12100.0,96.15384615384635
19,12712.0,98.03921568627449
20,13320.0,98.6842105263157
21,13948.0,95.54140127388533
22,14572.0,96.15384615384635
23,15288.0,83.79888268156412
24,15920.0,94.93670886075954
25,16468.0,109.4890510948905
26,17152.0,87.7192982456139
27,17744.0,101.35135135135157
28,18468.0,82.87292817679555
29,19112.0,93.16770186335428
30,19708.0,100.67114093959731
31,20340.0,94.93670886075928
32,21000.0,90.90909090909089
33,21652.0,92.02453987730047
34,22264.0,98.03921568627477
35,22940.0,88.75739644970389
36,23528.0,102.04081632653106
37,24220.0,86.70520231213871
38,24788.0,105.63380281690115
39,25416.0,95.54140127388533
40,26120.0,85.22727272727265
41,26644.0,114.5038167938937
42,27260.0,97.4025974025969
43,27872.0,98.03921568627477
44,28528.0,91.4634146341465
45,29084.0,107.91366906474802
46,29740.0,91.4634146341465
47,30396.0,91.46341463414602
48,31004.0,98.6842105263157
49,31524.0,115.38461538461549
50,32128.0,99.337748344371
51,32792.0,90.36144578313233
52,33444.0,92.02453987730047
53,33956.0,117.1874999999999
54,34576.0,96.7741935483875
55,35204.0,95.54140127388533
56,35852.0,92.59259259259315
57,36480.0,95.54140127388533
58,37124.0,93.16770186335324
59,37764.0,93.74999999999991
60,38380.0,97.40259740259745
61,39004.0,96.15384615384689
62,39716.0,84.26966292134793
63,40240.0,114.50381679389294
64,40856.0,97.40259740259745
65,41480.0,96.15384615384689
66,42072.0,101.35135135135035
67,42708.0,94.33962264151008
68,43380.0,89.28571428571374
69,43940.0,107.14285714285806
70,44500.0,107.14285714285671
71,45212.0,84.26966292134793
72,45784.0,104.8951048951057
73,46356.0,104.8951048951044
74,46972.0,97.40259740259745
75,47620.0,92.59259259259315
76,48348.0,82.41758241758224
77,48900.0,108.69565217391312
78,49552.0,92.02453987730047
79,50152.0,99.99999999999976
80,50776.0,96.15384615384579
81,51444.0,89.82035928143722
82,52112.0,89.82035928143722
83,52684.0,104.8951048951057
84,53304.0,96.77419354838639
85,53932.0,95.54140127388533
86,54652.0,83.33333333333347
87,55172.0,115.38461538461627
88,55872.0,85.71428571428537
89,56492.0,96.7741935483875
90,57020.0,113.63636363636239
91,57688.0,89.82035928143722
92,58316.0,95.54140127388533
93,58984.0,89.82035928143722
94,59532.0,109.48905109489156
95,60224.0,86.70520231213871
96,60756.0,112.78195488721728
97,61368.0,98.0392156862742
98,62100.0,81.96721311475417
99,62692.0,101.35135135135157
100,63308.0,97.40259740259745
101,64056.0,80.21390374331577
102,64800.0,80.6451612903226
103,65548.0,80.21390374331502
104,66144.0,100.6711409395967
105,66844.0,85.7142857142871
106,67572.0,82.41758241758144
107,68304.0,81.96721311475417
108,68960.0,91.4634146341475
109,69608.0,92.59259259259112
110,70256.0,92.59259259259315
111,70800.0,110.29411764705945
112,71428.0,95.54140127388533
113,72084.0,91.46341463414552
114,72744.0,90.90909090909138
115,73432.0,87.20930232558109
116,74148.0,83.79888268156495
117,74696.0,109.48905109489014
118,75432.0,81.52173913043431
119,76068.0,94.33962264151008
120,76716.0,92.59259259259315
121,77384.0,89.82035928143627
122,77932.0,109.48905109489014
123,78656.0,82.87292817679516
124,79292.0,94.33962264151008
125,79860.0,105.6338028169018
126,80496.0,94.33962264151008
127,81156.0,90.90909090908941
128,81792.0,94.33962264151008
129,82432.0,93.74999999999991
130,83060.0,95.54140127388533
131,83684.0,96.15384615384689
132,84312.0,95.54140127388533
133,84932.0,96.77419354838639
134,85572.0,93.74999999999991
135,86208.0,94.33962264151008
136,86852.0,93.16770186335324
137,87552.0,85.71428571428537
138,88104.0,108.69565217391452
139,88684.0,103.44827586206927
140,89360.0,88.75739644970389
141,90024.0,90.36144578313233
142,90688.0,90.36144578313233
143,91316.0,95.54140127388533
144,91936.0,96.77419354838639
145,92492.0,107.9136690647487
146,93152.0,90.90909090909138
147,93792.0,93.74999999999991
148,94460.0,89.82035928143819
149,94988.0,113.63636363636239
150,95700.0,84.26966292134793
151,96320.0,96.77419354838861
152,96936.0,97.4025974025952
153,97520.0,102.7397260273992
154,98172.0,92.02453987730047
155,98744.0,104.8951048951044
156,99356.0,98.03921568627534
157,99904.0,109.48905109489014
158,100528.0,96.1538461538447
159,101148.0,96.77419354838861
160,101816.0,89.82035928143627
161,102416.0,100.00000000000095
162,103036.0,96.77419354838639
163,103696.0,90.90909090909138
164,104388.0,86.70520231213781
165,104968.0,103.44827586206927
166,105596.0,95.54140127388533
167,106244.0,92.59259259259315
168,106892.0,92.59259259259315
169,107604.0,84.26966292134793
170,108188.0,102.7397260273967
171,108756.0,105.6338028169018
172,109368.0,98.03921568627534
173,109984.0,97.40259740259745
174,110556.0,104.8951048951044
175,111208.0,92.02453987730047
176,111792.0,102.7397260273967
177,112396.0,99.337748344371
178,113044.0,92.59259259259315
179,113592.0,109.48905109489014
180,114216.0,96.15384615384689
181,114812.0,100.6711409395967
182,115516.0,85.2272727272718
183,116076.0,107.14285714285943
184,116644.0,105.63380281689916
185,117240.0,100.6711409395991
186,117912.0,89.28571428571279
187,118444.0,112.78195488721879
188,119116.0,89.28571428571468
189,119660.0,110.29411764705945
190,120340.0,88.23529411764618
191,120944.0,99.337748344371
192,121468.0,114.50381679389294
193,122136.0,89.82035928143819
194,122700.0,106.3829787234029
195,123320.0,96.77419354838861
196,123752.0,138.8888888888882
197,124428.0,88.75739644970389
198,124924.0,120.9677419354816
199,125700.0,77.31958762886636
200,126108.0,147.0588235294113
201,126812.0,85.22727272727352
202,127504.0,86.70520231213781
203,128051.99999999999,109.48905109489299
204,128592.00000000001,111.1111111111069
205,129204.00000000001,98.03921568627534
206,129868.0,90.36144578313426
207,130360.00000000001,121.9512195121905
208,130972.00000000001,98.03921568627534
209,131592.0,96.77419354838639
210,132240.0,92.59259259259315
211,132756.0,116.27906976744386
212,133360.0,99.33774834436865
213,134032.0,89.28571428571468
214,134636.0,99.33774834437332
215,135228.0,101.35135135134914
216,135804.0,104.16666666666787
217,136448.0,93.16770186335324
218,137012.0,106.38297872340559
219,137576.0,106.38297872340559
220,138252.0,88.75739644970203
221,138848.0,100.6711409395967
222,139408.0,107.14285714286214
223,139976.0,105.63380281689916
224,140608.0,94.93670886075874
225,141176.0,105.63380281690445
226,141852.0,88.75739644970203
227,142420.0,105.63380281690445
228,142976.0,107.91366906474595
229,143660.0,87.71929824561435
230,144200.0,111.11111111111275
231,144812.0,98.0392156862708
232,145436.0,96.15384615384689
233,146052.0,97.40259740259971
234,146708.0,91.46341463414552
235,147292.0,102.7397260273967
236,147948.0,91.46341463414552
237,148544.0,100.6711409395967
238,149228.0,87.71929824561435
239,149812.0,102.7397260273967
240,150464.0,92.02453987730247
241,151068.0,99.33774834436865
242,151628.0,107.14285714286214
243,152316.0,87.20930232557929
244,152940.0,96.15384615384689
245,153464.0,114.50381679389294
246,154088.0,96.15384615384689
247,154700.0,98.03921568627534
248,155292.0,101.35135135134914
249,156000.0,84.7457627118646
250,156552.0,108.69565217391452
251,157196.0,93.16770186335324
252,157804.0,98.68421052631513
253,158380.0,104.16666666666787
254,159072.0,86.70520231213781
255,159696.0,96.15384615384689
256,160232.0,111.9402985074624
257,160908.0,88.75739644970575
258,161520.0,98.0392156862708
259,162100.0,103.44827586207181
260,162704.0,99.33774834436865
261,163344.0,93.750000000002
262,163944.0,100.00000000000095
263,164472.0,113.63636363635933
264,165040.0,105.63380281690445
265,165728.0,87.20930232557929
266,166320.0,101.351351351354
267,166836.0,116.27906976743745
268,167516.0,88.23529411764986
269,168040.0,114.50381679389294
270,168612.0,104.8951048951044
271,169248.0,94.33962264151008
272,169828.0,103.44827586206674
273,170360.0,112.78195488721578
274,170948.0,102.04081632653168
275,171532.0,102.7397260273967
276,172108.0,104.16666666666787
277,172684.0,104.16666666666787
278,173272.0,102.04081632653168
279,173844.0,104.8951048951044
280,174428.0,102.7397260273967
281,175016.0,102.04081632653168
282,175696.0,88.23529411764618
283,176212.0,116.27906976744386
284,176864.0,92.02453987729847
285,177368.0,119.04761904762125
286,177944.0,104.16666666666787
287,178524.0,103.44827586206674
288,179104.0,103.44827586206674
289,179740.0,94.33962264151008
290,180352.0,98.03921568627534
291,180932.0,103.44827586207181
292,181504.0,104.8951048951044
293,182080.0,104.16666666666272
294,182616.0,111.9402985074624
295,183164.0,109.48905109489583
296,183824.0,90.90909090908747
297,184416.0,101.351351351354
298,185000.0,102.7397260273967
299,185588.0,102.04081632653168
300,186088.0,120.0
301,186792.0,85.2272727272718
302,187316.0,114.50381679389294
303,187916.0,100.00000000000095
304,188564.0,92.59259259259315
305,189212.0,92.59259259259315
306,189824.0,98.0392156862708
307,190432.0,98.68421052631975
308,190996.0,106.38297872340023
309,191548.0,108.69565217391452
310,192148.0,100.00000000000095
311,192740.0,101.35135135134914
312,193340.0,100.00000000000095
313,193988.0,92.59259259259315
314,194556.0,105.63380281689916
315,195136.0,103.44827586207181
316,195736.0,100.00000000000095
317,196332.0,100.6711409395967
318,196944.0,98.03921568627534
319,197524.0,103.44827586206674
320,198124.0,100.00000000000095
321,198744.0,96.77419354838639
322,199356.0,98.03921568627534
323,200064.0,84.7457627118646
324,200608.0,110.29411764705657
325,201292.0,87.71929824561435
326,201904.0,98.03921568627534
327,202452.0,109.48905109489014
328,203064.0,98.03921568627534
329,203776.0,84.26966292134624
330,204392.0,97.40259740259971
331,204920.0,113.63636363636545
332,205600.0,88.23529411764618
333,206208.0,98.68421052631513
334,206820.0,98.03921568627534
335,207356.0,111.9402985074624
336,208028.0,89.28571428571468
337,208568.0,111.1111111111069
338,209248.0,88.23529411764986
339,209860.0,98.0392156862708
340,210440.0,103.44827586207181
341,211088.0,92.59259259259315
342,211496.0,147.0588235294062
343,212220.0,82.87292817679678
344,212924.0,85.2272727272718
345,213508.0,102.7397260273967
346,214108.0,100.00000000000095
347,214748.0,93.750000000002
348,215352.0,99.33774834436865
349,215956.0,99.33774834437332
350,216564.0,98.68421052631513
351,217120.0,107.91366906474595
352,217756.0,94.33962264151008
353,218352.0,100.6711409395967
354,218952.0,100.00000000000095
355,219556.0,99.33774834436865
356,220080.0,114.50381679389294
357,220752.0,89.28571428571468
358,221344.0,101.351351351354
359,221940.0,100.6711409395967
360,222460.0,115.38461538461311
361,223092.0,94.93670886075874
362,223652.0,107.14285714286214
363,224244.0,101.35135135134914
364,224816.0,104.8951048951044
365,225500.0,87.71929824561435
366,226088.0,102.04081632653168
367,226612.0,114.50381679389294
368,227276.0,90.36144578313039
369,227872.0,100.6711409395967
370,228468.0,100.6711409396015
371,229004.0,111.9402985074624
372,229608.0,99.33774834436865
373,230284.0,88.75739644970575
374,230884.0,100.00000000000095
375,231484.0,99.9999999999962
376,232060.0,104.16666666666787
377,232720.0,90.90909090909138
378,233328.0,98.68421052631513
379,233936.0,98.68421052631513
380,234544.0,98.68421052631513
381,235156.0,98.03921568627534
382,235772.0,97.40259740259971
383,236344.0,104.8951048951044
384,236912.0,105.63380281689916
385,237516.0,99.33774834437332
386,238204.0,87.20930232557929
387,238824.0,96.77419354838639
388,239448.0,96.15384615384689
389,240056.0,98.68421052631513
390,240668.0,98.03921568627534
391,241280.0,98.03921568627534
392,241896.0,97.40259740259971
393,242428.0,112.78195488721578
394,243108.0,88.23529411764618
395,243624.0,116.27906976744386
396,244144.0,115.38461538461311
397,244812.0,89.82035928143627
398,245420.0,98.68421052631975
399,246012.0,101.35135135134914
400,246584.0,104.8951048951044
401,247176.0,101.351351351354
402,247772.0,100.6711409395967
403,248380.0,98.68421052631513
404,248972.0,101.35135135134914
405,249544.0,104.8951048951044
406,250140.0,100.6711409396015
407,250780.0,93.74999999999784
408,251416.0,94.33962264151008
409,251916.0,120.0
410,252508.0,101.35135135134914
411,253112.0,99.33774834437332
412,253684.0,104.8951048951044
413,254356.0,89.28571428571468
414,254872.0,116.27906976743745
415,255468.0,100.6711409396015
416,256164.0,86.2068965517244
417,256776.0,98.0392156862708
418,257279.99999999997,119.04761904762796
419,257968.00000000003,87.20930232557569
420,258579.99999999997,98.0392156862799
421,259196.00000000003,97.40259740259071
422,259812.0,97.40259740259971
423,260356.0,110.29411764706232
424,261012.0,91.46341463414552
425,261664.0,92.02453987730247
426,262212.0,109.48905109489014
427,262820.0,98.68421052631513
428,263480.0,90.90909090908747
429,264116.0,94.3396226415143
430,264836.0,83.33333333333017
431,265376.0,111.1111111111186
432,266008.0,94.93670886075874
433,266756.0,80.21390374331654
434,267312.0,107.91366906474043
435,267972.0,90.9090909090953
436,268644.0,89.2857142857109
437,269332.0,87.2093023255829
438,269952.0,96.77419354838639
439,270556.0,99.33774834437332
440,271212.0,91.46341463414552
441,271840.0,95.5414012738875
442,272568.0,82.41758241758144
443,273216.0,92.59259259258909
444,273828.0,98.0392156862799
445,274476.0,92.59259259258909
446,275068.0,101.351351351354
447,275680.0,98.0392156862708
448,276400.0,83.33333333333675
449,276972.0,104.8951048951044
450,277592.0,96.77419354838639
451,278312.0,83.33333333333017
452,278932.0,96.77419354838639
453,279468.0,111.9402985074624
454,280120.0,92.02453987730247
455,280732.0,98.0392156862708
456,281408.0,88.75739644970575
457,281968.0,107.14285714285671
458,282672.0,85.2272727272718
459,283212.0,111.1111111111186
460,283896.0,87.71929824561072
461,284508.0,98.0392156862799
462,285092.0,102.7397260273967
463,285656.0,106.38297872340023
464,286276.0,96.77419354838639
465,286804.0,113.63636363637157
466,287432.0,95.54140127387885
467,287976.0,110.29411764706232
468,288568.0,101.351351351354
469,289208.0,93.74999999999368
470,289796.0,102.04081632653661
471,290348.0,108.69565217390893
472,290924.0,104.166666666673
473,291564.0,93.74999999999368
474,292200.0,94.3396226415143
475,292760.0,107.14285714285671
476,293352.0,101.351351351354
477,293976.0,96.15384615384251
478,294480.0,119.04761904761453
479,295080.0,100.00000000000568
480,295776.0,86.20689655172087
481,296348.0,104.8951048951044
482,296896.0,109.48905109489014
483,297500.0,99.33774834437332
484,298120.0,96.77419354838639
485,298800.0,88.23529411764618
486,299368.0,105.63380281690445
487,299940.0,104.8951048951044
488,300524.0,102.7397260273967
489,301132.0,98.68421052631513
490,301816.0,87.719298245618
491,302420.0,99.33774834436397
492,302980.0,107.14285714285671
493,303632.0,92.02453987730247
494,304172.0,111.1111111111069
495,304856.0,87.719298245618
496,305392.0,111.9402985074624
497,305996.0,99.33774834437332
498,306600.0,99.33774834436397
499,307268.0,89.82035928144391
500,307872.0,99.33774834436397
501,308404.0,112.7819548872218
502,309080.0,88.75739644970575
503,309636.0,107.91366906474043
504,310176.0,111.1111111111186
505,310796.0,96.77419354838639
506,311396.0,99.9999999999962
507,312068.0,89.28571428571846
508,312668.0,99.9999999999962
509,313268.0,100.00000000000568
510,313876.0,98.68421052631513
511,314496.0,96.77419354838639
512,315076.0,103.44827586206166
513,315640.0,106.38297872341094
514,316320.0,88.23529411764618
515,316892.0,104.8951048951044
516,317532.0,93.750000000002
517,318220.0,87.20930232557569
518,318688.0,128.20512820513892
519,320704.0,29.761904761904475
520,321328.0,96.15384615385126
521,321948.0,96.77419354838639
522,322636.0,87.20930232557569
523,323216.0,103.44827586207181
524,323856.0,93.750000000002
525,324508.0,92.02453987730247
526,325176.0,89.82035928143627
527,325888.0,84.2696629213496
528,326432.0,110.2941176470508
529,327136.0,85.2272727272718
530,327748.0,98.0392156862799
531,328316.0,105.63380281690445
532,328952.0,94.33962264150585
533,329592.0,93.750000000002
534,330304.0,84.2696629213496
535,330844.0,111.1111111111069
536,331488.0,93.16770186335324
537,332128.0,93.750000000002
538,332744.0,97.40259740259071
539,333360.0,97.40259740259971
540,334080.0,83.33333333333675
541,334664.0,102.7397260273967
542,335256.0,101.351351351354
543,335956.0,85.71428571428015
544,336584.0,95.5414012738875
545,337208.0,96.15384615384251
546,337760.0,108.69565217392012
547,338460.0,85.7142857142871
548,339088.0,95.54140127387885
549,339688.0,100.00000000000568
550,340264.0,104.16666666666272
551,340964.0,85.7142857142871
552,341572.0,98.68421052631513
553,342312.0,81.08108108108009
554,342972.0,90.9090909090953
555,343628.0,91.46341463414552
556,344240.0,98.0392156862708
557,344832.0,101.351351351354
558,345492.0,90.90909090908747
559,346120.0,95.5414012738875
560,346868.0,80.21390374331654
561,347432.0,106.38297872340023
562,348080.0,92.5925925925972
563,348704.0,96.15384615384251
564,349336.0,94.93670886075874
565,349968.0,94.93670886075874
566,350692.0,82.87292817679678
567,351268.0,104.166666666673
568,351880.0,98.0392156862708
569,352508.0,95.5414012738875
570,353148.0,93.74999999999368
571,353780.0,94.93670886076728
572,354444.0,90.36144578312653
573,355184.0,81.08108108108009
574,355828.0,93.16770186336147
575,356368.0,111.1111111111069
576,357012.0,93.16770186335324
577,357656.0,93.16770186335324
578,358288.0,94.93670886075874
579,358916.0,95.5414012738875
580,359540.0,96.15384615384251
581,360168.0,95.5414012738875
582,360900.0,81.96721311475736
583,361208.0,194.80519480516347
584,361528.0,187.500000000004
585,362072.0,110.29411764706232
586,362688.0,97.40259740259971
587,363308.0,96.77419354838639
588,364024.0,83.79888268156328
589,364592.0,105.63380281690445
590,365232.0,93.74999999999368
591,365884.0,92.02453987730247
592,366496.0,98.0392156862799
593,367112.0,97.40259740259071
594,367752.0,93.750000000002
595,368368.0,97.40259740259971
596,369080.0,84.2696629213496
597,369604.0,114.50381679389294
598,370240.0,94.33962264150585
599,370952.0,84.2696629213496
600,371536.0,102.7397260273967
601,372204.0,89.82035928143627
602,372832.0,95.5414012738875
603,373368.0,111.9402985074624
604,373996.0,95.5414012738875
605,374680.0,87.71929824561072
606,375336.0,91.46341463414552
607,375864.0,113.63636363637157
608,376536.0,89.2857142857109
609,377196.0,90.90909090908747
610,377804.0,98.68421052632435
611,378336.0,112.78195488720975
612,379004.0,89.82035928143627
613,379516.0,117.1874999999999
614,380132.0,97.40259740259971
615,380808.0,88.75739644970575
616,381412.0,99.33774834437332
617,382016.0,99.33774834436397
618,382612.0,100.6711409395967
619,383128.0,116.27906976745027
620,383824.0,86.20689655172087
621,384452.0,95.5414012738875
622,384984.0,112.7819548872218
623,385580.0,100.6711409395967
624,386244.0,90.36144578312653
625,386888.0,93.16770186336147
626,387504.0,97.40259740259071
627,388016.0,117.1874999999999
628,388676.0,90.9090909090953
629,389316.0,93.750000000002
630,389832.0,116.27906976743745
631,390528.0,86.20689655172087
632,391032.0,119.04761904762796
633,391628.0,100.6711409395967
634,392308.0,88.23529411764618
635,392828.0,115.38461538461942
636,393436.0,98.68421052631513
637,394132.0,86.20689655172087
638,394528.0,151.51515151514576
639,395260.0,81.96721311475736
640,395740.0,124.99999999999527
641,396480.0,81.08108108108009
642,396996.0,116.27906976745027
643,397820.0,72.81553398058144
644,398220.0,149.9999999999872
645,398960.0,81.08108108108631
646,399436.0,126.05042016806746
647,400288.0,70.42253521126494
648,400708.0,142.85714285713743
649,401420.0,84.2696629213496
650,401892.0,127.118644067802
651,402644.0,79.78723404255217
652,403112.0,128.20512820512334
653,403864.0,79.78723404255821
654,404332.0,128.20512820512334
655,405128.0,75.37688442211129
656,405520.0,153.06122448979752
657,406224.0,85.2272727272718
658,406728.0,119.04761904761453
659,407436.0,84.745762711868
660,407940.0,119.04761904761453
661,408652.0,84.2696629213496
662,409256.0,99.33774834437332
663,409816.0,107.14285714285671
664,410428.0,98.0392156862708
665,411088.0,90.90909090908747
666,411648.0,107.14285714285671
667,412208.0,107.14285714285671
668,412808.0,100.00000000000568
669,413480.0,89.2857142857109
670,414040.0,107.14285714285671
671,414676.0,94.3396226415143
672,415224.0,109.48905109489014
673,415792.0,105.63380281690445
674,416464.0,89.2857142857109
675,417052.0,102.04081632652675
676,417564.0,117.1874999999999
677,418164.0,100.00000000000568
678,418852.0,87.2093023255829
679,419444.0,101.35135135134426
680,419944.0,120.0
681,420540.0,100.6711409395967
682,421136.0,100.6711409395967
683,421736.0,100.00000000000568
684,422344.0,98.68421052631513
685,422972.0,95.5414012738875
686,423512.0,111.1111111111069
687,424112.0,99.9999999999962
688,424760.0,92.5925925925972
689,425268.0,118.11023622047678
690,425908.0,93.74999999999368
691,426452.0,110.29411764706232
692,427140.0,87.2093023255829
693,427660.0,115.3846153846068
694,428236.0,104.166666666673
695,428864.0,95.5414012738875
696,429536.0,89.2857142857109
697,430068.0,112.7819548872218
698,430644.0,104.16666666666272
699,431244.0,99.9999999999962
700,431860.0,97.40259740259971
701,432460.0,100.00000000000568
702,433048.0,102.04081632652675
703,433628.0,103.44827586207181
704,434316.0,87.2093023255829
705,434908.0,101.35135135134426
706,435408.0,120.0
707,436000.0,101.351351351354
708,436688.0,87.2093023255829
709,437192.0,119.04761904761453
710,437784.0,101.351351351354
711,438340.0,107.91366906475147
712,438972.0,94.93670886075874
713,439540.0,105.63380281689388
714,440172.0,94.93670886075874
715,440756.0,102.7397260274067
716,441288.0,112.78195488720975
717,441868.0,103.44827586207181
718,442448.0,103.44827586207181
719,443028.0,103.44827586206166
720,443660.0,94.93670886075874
721,444196.0,111.9402985074624
722,444772.0,104.166666666673
723,445376.0,99.33774834437332
724,445992.0,97.40259740259071
725,446524.0,112.7819548872218
726,447108.0,102.7397260273967
727,447688.0,103.44827586207181
728,448276.0,102.04081632652675
729,448868.0,101.351351351354
730,449472.0,99.33774834437332
731,450052.0,103.44827586206166
732,450664.0,98.0392156862799
733,451232.0,105.63380281689388
734,451908.0,88.75739644970575
735,452404.0,120.96774193548853
736,452984.0,103.44827586207181
737,453564.0,103.44827586206166
738,454144.0,103.44827586207181
739,454720.0,104.16666666666272
740,455296.0,104.166666666673
741,455880.0,102.7397260273967
742,456548.0,89.82035928143627
743,457036.0,122.95081967213126
744,457716.0,88.23529411764618
745,458208.0,121.9512195121905
746,458788.0,103.44827586207181
747,459456.0,89.82035928143627
748,459952.0,120.96774193548853
749,460524.0,104.8951048951044
750,461096.0,104.8951048951044
751,461672.0,104.16666666666272
752,462268.0,100.6711409396063
753,462844.0,104.16666666666272
754,463396.0,108.69565217390893
755,463932.0,111.9402985074624
756,464532.0,100.00000000000568
757,465100.0,105.63380281689388
758,465680.0,103.44827586207181
759,466212.0,112.7819548872218
760,466864.0,92.02453987730247
761,467380.0,116.27906976743745
762,468036.0,91.46341463414552
763,468532.0,120.96774193548853
764,469080.0,109.48905109489014
765,469700.0,96.77419354838639
766,470212.0,117.1874999999999
767,470780.0,105.63380281690445
768,471400.0,96.77419354838639
769,471932.0,112.78195488720975
770,472480.0,109.48905109489014
771,473056.0,104.166666666673
772,473704.0,92.59259259258909
773,474196.0,121.9512195121905
774,474768.0,104.89510489511481
775,475336.0,105.63380281689388
776,475908.0,104.8951048951044
777,476484.0,104.166666666673
778,477056.0,104.8951048951044
779,477628.0,104.8951048951044
780,478204.0,104.16666666666272
781,478792.0,102.04081632653661
782,479392.0,99.9999999999962
783,479972.0,103.44827586207181
784,480492.0,115.3846153846068
785,481060.0,105.63380281690445
786,481644.0,102.7397260273967
787,482220.0,104.16666666666272
788,482800.0,103.44827586207181
789,483384.0,102.7397260273967
790,483984.0,100.00000000000568
791,484516.0,112.78195488720975
792,485132.0,97.40259740259971
793,485720.0,102.04081632652675
794,486360.0,93.750000000002
795,486900.0,111.1111111111186
796,487528.0,95.54140127387885
797,488068.0,111.1111111111186
798,488696.0,95.54140127387885
799,489288.0,101.351351351354
800,489892.0,99.33774834437332
801,490496.0,99.33774834437332
802,491100.0,99.33774834436397
803,491756.0,91.46341463415344
804,492300.0,110.2941176470508
805,492896.0,100.6711409395967
806,493492.0,100.6711409395967
807,494132.0,93.750000000002
808,494752.0,96.77419354838639
809,495268.0,116.27906976745027
810,495948.0,88.23529411764618
811,496440.0,121.9512195121905
812,497036.0,100.6711409395967
813,497748.0,84.2696629213496
814,498268.0,115.38461538461942
815,498880.0,98.0392156862708
816,499576.0,86.20689655172087
817,500084.0,118.11023622047678
818,500680.0,100.6711409395967
819,501280.0,100.00000000000568
820,501968.0,87.20930232557569
821,502508.0,111.1111111111186
822,503144.0,94.33962264150585
823,503772.0,95.5414012738875
824,504284.0,117.1874999999999
825,504968.0,87.71929824561072
826,505524.0,107.91366906475147
827,506168.0,93.16770186335324
828,506676.0,118.11023622047678
829,507276.0,99.9999999999962
830,507880.0,99.33774834437332
831,508496.0,97.40259740259971
832,509172.0,88.75739644969829
833,509764.0,101.351351351354
834,510372.0,98.68421052631513
835,510964.0,101.351351351354
836,511492.0,113.63636363635933
837,512083.99999999994,101.35135135136373
838,512703.99999999994,96.77419354838639
839,513248.00000000006,110.29411764703927
840,513836.0,102.04081632653661
841,514424.0,102.04081632653661
842,515008.00000000006,102.7397260273867
843,515683.99999999994,88.75739644971321
844,516179.99999999994,120.96774193548853
845,516768.0,102.04081632651688
846,517376.0,98.68421052632435
847,518083.99999999994,84.745762711868
848,518631.99999999994,109.48905109489014
849,519323.99999999994,86.70520231213781
850,519940.00000000006,97.40259740258173
851,520563.99999999994,96.15384615386003
852,521188.0,96.15384615384251
853,521736.0,109.48905109489014
854,522419.99999999994,87.719298245618
855,522956.0,111.94029850745054
856,523568.0,98.0392156862799
857,524188.0,96.77419354838639
858,524948.0,78.94736842105358
859,525584.0,94.3396226415143
860,526216.0,94.9367088607502
861,526800.0,102.7397260274067
862,527492.0,86.70520231213781
863,528140.0,92.59259259258909
864,528688.0,109.48905109489014
865,529404.0,83.79888268156328
866,530036.0,94.93670886076728
867,530688.0,92.02453987729446
868,531220.0,112.78195488720975
869,531856.0,94.3396226415143
870,532544.0,87.2093023255829
871,533160.0,97.40259740259971
872,533684.0,114.50381679389294
873,534384.0,85.71428571428015
874,534900.0,116.27906976745027
875,535504.0,99.33774834436397
876,536100.0,100.6711409395967
877,536700.0,99.9999999999962
878,537356.0,91.46341463415344
879,537904.0,109.48905109489014
880,538496.0,101.351351351354
881,539092.0,100.6711409395967
882,539692.0,99.9999999999962
883,540308.0,97.40259740259971
884,540884.0,104.16666666666272
885,541592.0,84.745762711868
886,542156.0,106.38297872341094
887,542760.0,99.33774834436397
888,543328.0,105.63380281690445
889,543928.0,99.9999999999962
890,544504.0,104.16666666666272
891,545092.0,102.04081632653661
892,545768.0,88.75739644969829
893,546328.0,107.14285714286758
894,546864.0,111.94029850745054
895,547448.0,102.7397260274067
896,548032.0,102.7397260273867
897,548608.0,104.16666666668328
898,549244.0,94.33962264149743
899,549768.0,114.50381679389294
900,550348.0,103.44827586208194
901,550936.0,102.04081632651688
902,551516.0,103.44827586208194
903,552196.0,88.2352941176388
904,552688.0,121.95121951220459
905,553328.0,93.750000000002
906,553916.0,102.04081632651688
907,554540.0,96.15384615386003
908,555136.0,100.6711409395967
909,555728.0,101.351351351354
910,556288.0,107.14285714284583
911,556908.0,96.77419354838639
912,557464.0,107.91366906474043
913,558100.0,94.3396226415143
914,558596.0,120.96774193548853
915,559292.0,86.20689655172087
916,559800.0,118.11023622049
917,560408.0,98.6842105263059
918,561076.0,89.82035928143627
919,561628.0,108.69565217390893
920,562168.0,111.1111111111186
921,562760.0,101.351351351354
922,563360.0,99.9999999999962
923,563952.0,101.351351351354
924,564636.0,87.719298245618
925,565148.0,117.18749999998688
926,565752.0,99.33774834438267
927,566452.0,85.71428571428015
928,567040.0,102.04081632653661
929,567556.0,116.27906976742464
930,568200.0,93.16770186335324
931,568744.0,110.29411764706232
932,569428.0,87.719298245618
933,569988.0,107.14285714284583
934,570548.0,107.14285714286758
935,571124.0,104.16666666666272
936,571708.0,102.7397260274067
937,572396.0,87.2093023255829
938,572920.0,114.50381679389294
939,573516.0,100.6711409395967
940,574212.0,86.20689655172087
941,574784.0,104.8951048951044
942,575220.0,137.61467889907138
943,575940.0,83.33333333333017
944,576540.0,100.00000000001516
945,577224.0,87.71929824560343
946,577736.0,117.1875000000129
947,578392.0,91.46341463413759
948,578984.0,101.351351351354
949,579584.0,100.00000000001516
950,580132.0,109.48905109489014
951,580524.0,153.06122448977533
952,580840.0,189.8734177215004
953,581404.0,106.38297872341094
954,581996.0,101.351351351354
955,582612.0,97.40259740259971
956,583216.0,99.33774834436397
957,583828.0,98.0392156862799
958,584448.0,96.77419354838639
959,585152.0,85.2272727272649
960,585780.0,95.54140127389614
961,586396.0,97.40259740259971
962,586968.0,104.8951048951044
963,587548.0,103.44827586206166
964,588188.0,93.750000000002
965,588840.0,92.02453987729446
966,589360.0,115.38461538461942
967,589984.0,96.15384615384251
968,590580.0,100.6711409395967
969,591184.0,99.33774834438267
970,591856.0,89.2857142857109
971,592372.0,116.27906976745027
972,592980.0,98.6842105263059
973,593664.0,87.719298245618
974,594176.0,117.18749999998688
975,594860.0,87.719298245618
976,595456.0,100.6711409395967
977,595960.0,119.04761904761453
978,596576.0,97.40259740259971
979,597176.0,99.9999999999962
980,597776.0,100.00000000001516
981,598364.0,102.04081632651688
982,598976.0,98.0392156862799
983,599604.0,95.54140127387885
984,600172.0,105.63380281690445
985,600844.0,89.2857142857109
986,601356.0,117.1875000000129
987,601956.0,99.9999999999962
988,602556.0,99.9999999999962
989,603160.0,99.33774834438267
990,603752.0,101.351351351354
991,604344.0,101.35135135133453
992,604944.0,100.00000000001516
993,605536.0,101.351351351354
994,606140.0,99.33774834436397
995,606820.0,88.2352941176388
996,607320.0,120.0
997,607996.0,88.75739644971321
998,608520.0,114.50381679389294
999,609136.0,97.40259740259971
1000,609768.0,94.9367088607502
1001,610264.0,120.96774193548853
1002,610940.0,88.75739644969829
1003,611468.0,113.63636363638379
1004,612040.0,104.8951048951044
1005,612716.0,88.75739644969829
1006,613304.0,102.04081632653661
1007,613812.0,118.11023622046356
1008,614476.0,90.36144578313426
1009,614972.0,120.96774193548853
1010,615564.0,101.351351351354
1011,616152.0,102.04081632651688
1012,616832.0,88.23529411765355
1013,617236.0,148.51485148514985
1014,617908.0,89.2857142857109
1015,618492.0,102.7397260274067
1016,619068.0,104.16666666666272
1017,619708.0,93.750000000002
1018,620236.0,113.63636363635933
1019,620804.0,105.63380281690445
1020,621376.0,104.8951048951044
1021,621944.0,105.63380281690445
1022,622540.0,100.6711409395967
1023,623092.0,108.69565217390893
1024,623672.0,103.44827586206166
1025,624328.0,91.46341463415344
1026,624824.0,120.96774193548853
1027,625404.0,103.44827586206166
1028,626024.0,96.77419354838639
1029,626552.0,113.63636363635933
1030,627148.0,100.6711409395967
1031,627708.0,107.14285714286758
1032,628292.0,102.7397260273867
1033,628948.0,91.46341463415344
1034,629448.0,120.0
1035,630108.0,90.9090909090953
1036,630680.0,104.8951048951044
1037,631168.0,122.95081967211694
1038,631744.0,104.16666666666272
1039,632312.0,105.63380281690445
1040,632980.0,89.82035928143627
1041,633512.0,112.78195488723385
1042,634036.0,114.50381679389294
1043,634696.0,90.90909090907964
1044,635204.0,118.11023622049
1045,635760.0,107.91366906474043
1046,636340.0,103.44827586206166
1047,636936.0,100.6711409395967
1048,637496.0,107.14285714286758
1049,638168.0,89.2857142857109
1050,638704.0,111.94029850747427
1051,639308.0,99.33774834436397
1052,639796.0,122.95081967211694
1053,640464.0,89.82035928143627
1054,640944.0,125.00000000002487
1055,641604.0,90.90909090907964
1056,642092.0,122.95081967214558
1057,642724.0,94.9367088607502
1058,643252.0,113.63636363638379
1059,643832.0,103.44827586206166
1060,644420.0,102.04081632653661
1061,645092.0,89.2857142857109
1062,645588.0,120.96774193548853
1063,646228.0,93.750000000002
1064,646856.0,95.54140127387885
1065,647440.0,102.7397260273867
1066,647936.0,120.96774193548853
1067,648536.0,100.00000000001516
1068,649096.0,107.14285714284583
1069,649764.0,89.82035928143627
1070,650276.0,117.1875000000129
1071,650836.0,107.14285714284583
1072,651432.0,100.6711409395967
1073,652012.0,103.44827586208194
1074,652540.0,113.63636363635933
1075,653144.0,99.33774834436397
1076,653692.0,109.48905109489014
1077,654296.0,99.33774834436397
1078,654976.0,88.23529411765355
1079,655556.0,103.44827586206166
1080,656060.0,119.04761904764139
1081,656656.0,100.6711409395967
1082,657336.0,88.2352941176388
1083,657832.0,120.96774193548853
1084,658520.0,87.2093023255829
1085,659024.0,119.04761904761453
1086,659620.0,100.6711409395967
1087,660228.0,98.68421052632435
1088,660816.0,102.04081632651688
1089,661380.0,106.38297872341094
1090,661964.0,102.7397260273867
1091,662552.0,102.04081632653661
1092,663144.0,101.351351351354
1093,663732.0,102.04081632653661
1094,664324.0,101.351351351354
1095,664916.0,101.35135135133453
1096,665512.0,100.67114093961591
1097,666092.0,103.44827586206166
1098,666684.0,101.351351351354
1099,667276.0,101.351351351354
1100,667868.0,101.35135135133453
1101,668464.0,100.6711409395967
1102,669068.0,99.33774834438267
1103,669712.0,93.16770186335324
1104,670304.0,101.351351351354
1105,670848.0,110.29411764706232
1106,671456.0,98.6842105263059
1107,672068.0,98.0392156862799
1108,672672.0,99.33774834436397
1109,673292.0,96.77419354838639
1110,673904.0,98.0392156862799
1111,674608.0,85.22727272727867
1112,675140.0,112.78195488720975
1113,675752.0,98.0392156862799
1114,676376.0,96.15384615384251
1115,677084.0,84.745762711868
1116,677624.0,111.1111111110952
1117,678260.0,94.3396226415143
1118,678816.0,107.91366906474043
1119,679416.0,99.9999999999962
1120,680036.0,96.77419354840413
1121,680700.0,90.3614457831188
1122,681204.0,119.04761904764139
1123,681884.0,88.2352941176388
1124,682484.0,99.9999999999962
1125,682948.0,129.31034482760242
1126,683588.0,93.750000000002
1127,684180.0,101.351351351354
1128,684800.0,96.77419354838639
1129,685332.0,112.78195488720975
1130,685968.0,94.3396226415143
1131,686524.0,107.91366906474043
1132,687148.0,96.15384615384251
1133,687788.0,93.750000000002
1134,688380.0,101.351351351354
1135,688900.0,115.38461538461942
1136,689492.0,101.351351351354
1137,690120.0,95.54140127387885
1138,690716.0,100.6711409395967
1139,691256.0,111.1111111111186
1140,691860.0,99.33774834436397
1141,692464.0,99.33774834436397
1142,693172.0,84.745762711868
1143,693752.0,103.44827586208194
1144,694416.0,90.3614457831188
1145,694956.0,111.1111111111186
1146,695644.0,87.2093023255829
1147,696220.0,104.16666666666272
1148,696836.0,97.40259740259971
1149,697404.0,105.63380281690445
1150,698112.0,84.745762711868
1151,698664.0,108.69565217390893
1152,699276.0,98.0392156862799
1153,699932.0,91.46341463413759
1154,700588.0,91.46341463415344
1155,701224.0,94.33962264149743
1156,701772.0,109.48905109489014
1157,702468.0,86.20689655173496
1158,703020.0,108.69565217390893
1159,703712.0,86.70520231213781
1160,704292.0,103.44827586206166
1161,704952.0,90.9090909090953
1162,705572.0,96.77419354838639
1163,706108.0,111.94029850747427
1164,706744.0,94.33962264149743
1165,707388.0,93.16770186335324
1166,707992.0,99.33774834438267
1167,708524.0,112.78195488720975
1168,709192.0,89.82035928143627
1169,709784.0,101.351351351354
1170,710376.0,101.351351351354
1171,710980.0,99.33774834436397
1172,711584.0,99.33774834438267
1173,712180.0,100.6711409395967
1174,712784.0,99.33774834436397
1175,713292.0,118.11023622046356
1176,713896.0,99.33774834438267
1177,714572.0,88.75739644969829
1178,715188.0,97.40259740259971
1179,715800.0,98.0392156862799
1180,716404.0,99.33774834436397
1181,716932.0,113.63636363635933
1182,717576.0,93.16770186335324
1183,718220.0,93.16770186335324
1184,718816.0,100.6711409395967
1185,719372.0,107.9136690647625
1186,719932.0,107.14285714284583
1187,720528.0,100.6711409395967
1188,721188.0,90.9090909090953
1189,721712.0,114.50381679389294
1190,722308.0,100.6711409395967
1191,722968.0,90.9090909090953
1192,723568.0,99.9999999999962
1193,724100.0,112.78195488720975
1194,724712.0,98.0392156862799
1195,725308.0,100.6711409395967
1196,725884.0,104.16666666666272
1197,726580.0,86.20689655172087
1198,727108.0,113.63636363638379
1199,727784.0,88.75739644969829
1200,728384.0,99.9999999999962
1201,728944.0,107.14285714286758
1202,729480.0,111.94029850745054
1203,730156.0,88.75739644971321
1204,730684.0,113.63636363635933
1205,731312.0,95.54140127387885
1206,731716.0,148.51485148514985
1207,732464.0,80.21390374331044
1208,732980.0,116.27906976745027
1209,733640.0,90.9090909090953
1210,734184.0,110.29411764706232
1211,734876.0,86.70520231213781
1212,735416.0,111.1111111110952
1213,736020.0,99.33774834438267
1214,736612.0,101.351351351354
1215,737208.0,100.6711409395967
1216,737820.0,98.03921568626168
1217,738420.0,100.00000000001516
1218,739028.0,98.6842105263059
1219,739624.0,100.6711409395967
1220,740324.0,85.71428571429406
1221,740852.0,113.63636363635933
1222,741488.0,94.33962264149743
1223,742128.0,93.750000000002
1224,742636.0,118.11023622049
1225,743256.0,96.77419354838639
1226,743840.0,102.7397260273867
1227,744480.0,93.750000000002
1228,745124.0,93.16770186335324
1229,745684.0,107.14285714286758
1230,746332.0,92.59259259258909
1231,746904.0,104.8951048951044
1232,747568.0,90.36144578313426
1233,748168.0,99.9999999999962
1234,748684.0,116.27906976745027
1235,749284.0,99.9999999999962
1236,749932.0,92.59259259258909
1237,750488.0,107.91366906474043
1238,751156.0,89.82035928145156
1239,751660.0,119.04761904761453
1240,752256.0,100.6711409395967
1241,752904.0,92.59259259258909
1242,753540.0,94.3396226415143
1243,754108.0,105.63380281690445
1244,754672.0,106.3829787233895
1245,755272.0,99.9999999999962
1246,755872.0,100.00000000001516
1247,756548.0,88.75739644969829
1248,757152.0,99.33774834436397
1249,757744.0,101.351351351354
1250,758296.0,108.69565217390893
1251,758860.0,106.38297872341094
1252,759432.0,104.8951048951044
1253,760048.0,97.40259740259971
1254,760636.0,102.04081632653661
1255,761228.0,101.351351351354
1256,761804.0,104.16666666666272
1257,762396.0,101.351351351354
1258,763080.0,87.71929824560343
1259,763672.0,101.351351351354
1260,764276.0,99.33774834438267
1261,764816.0,111.1111111110952
1262,765412.0,100.6711409395967
1263,766008.0,100.6711409395967
1264,766644.0,94.3396226415143
1265,767244.0,99.9999999999962
1266,767844.0,99.9999999999962
1267,768416.0,104.8951048951044
1268,769020.0,99.33774834438267
1269,769660.0,93.750000000002
1270,770224.0,106.3829787233895
1271,770812.0,102.04081632653661
1272,771412.0,99.9999999999962
1273,772016.0,99.33774834438267
1274,772652.0,94.33962264149743
1275,773252.0,100.00000000001516
1276,773832.0,103.44827586206166
1277,774516.0,87.719298245618
1278,775088.0,104.8951048951044
1279,775656.0,105.63380281690445
1280,776280.0,96.15384615384251
1281,776884.0,99.33774834436397
1282,777524.0,93.750000000002
1283,778092.0,105.63380281690445
1284,778756.0,90.36144578313426
1285,779268.0,117.18749999998688
1286,779896.0,95.54140127389614
1287,780508.0,98.03921568626168
1288,781116.0,98.68421052632435
1289,781704.0,102.04081632653661
1290,782364.0,90.90909090907964
1291,782972.0,98.68421052632435
1292,783584.0,98.0392156862799
1293,784228.0,93.16770186335324
1294,784764.0,111.94029850745054
1295,785352.0,102.04081632653661
1296,785972.0,96.77419354838639
1297,786632.0,90.9090909090953
1298,787156.0,114.50381679389294
1299,787784.0,95.54140127387885
1300,788328.0,110.29411764706232
1301,789008.0,88.2352941176388
1302,789568.0,107.14285714286758
1303,790180.0,98.0392156862799
1304,790736.0,107.91366906474043
1305,791340.0,99.33774834436397
1306,792008.0,89.82035928143627
1307,792620.0,98.0392156862799
1308,793264.0,93.16770186335324
1309,793880.0,97.40259740259971
1310,794416.0,111.94029850745054
1311,795020.0,99.33774834438267
1312,795692.0,89.2857142857109
1313,796284.0,101.351351351354
1314,796792.0,118.11023622046356
1315,797476.0,87.719298245618
1316,798000.0,114.50381679389294
1317,798636.0,94.3396226415143
1318,799280.0,93.16770186335324
1319,799804.0,114.50381679389294
1320,800388.0,102.7397260273867
1321,801044.0,91.46341463415344
1322,801612.0,105.63380281690445
1323,802284.0,89.2857142857109
1324,802880.0,100.6711409395967
1325,803384.0,119.04761904761453
1326,803980.0,100.6711409395967
1327,804592.0,98.0392156862799
1328,805220.0,95.54140127387885
1329,805812.0,101.351351351354
1330,806432.0,96.77419354838639
1331,806956.0,114.50381679389294
1332,807580.0,96.15384615384251
1333,808116.0,111.94029850747427
1334,808760.0,93.16770186335324
1335,809384.0,96.15384615384251
1336,809876.0,121.95121951220459
1337,810464.0,102.04081632651688
1338,811068.0,99.33774834438267
1339,811724.0,91.46341463413759
1340,812224.0,120.0
1341,812804.0,103.44827586208194
1342,813396.0,101.351351351354
1343,814016.0,96.77419354838639
1344,814564.0,109.48905109489014
1345,815220.0,91.46341463413759
1346,815760.0,111.1111111111186
1347,816312.0,108.69565217390893
1348,816896.0,102.7397260274067
1349,817564.0,89.82035928143627
1350,818148.0,102.7397260273867
1351,818732.0,102.7397260274067
1352,819324.0,101.351351351354
1353,819916.0,101.35135135133453
1354,820440.0,114.50381679389294
1355,821032.0,101.351351351354
1356,821656.0,96.15384615386003
1357,822196.0,111.1111111110952
1358,822800.0,99.33774834438267
1359,823460.0,90.90909090907964
1360,824044.0,102.7397260274067
1361,824608.0,106.38297872341094
1362,825240.0,94.9367088607502
1363,825764.0,114.50381679389294
1364,826356.0,101.351351351354
1365,826976.0,96.77419354838639
1366,827568.0,101.351351351354
1367,828192.0,96.15384615384251
1368,828788.0,100.6711409395967
1369,829380.0,101.351351351354
1370,829976.0,100.6711409395967
1371,830564.0,102.04081632653661
1372,831124.0,107.14285714284583
1373,831752.0,95.54140127389614
1374,832328.0,104.16666666666272
1375,832920.0,101.351351351354
1376,833428.0,118.11023622046356
1377,834052.0,96.15384615384251
1378,834596.0,110.29411764706232
1379,835248.0,92.02453987729446
1380,835756.0,118.11023622049
1381,836412.0,91.46341463413759
1382,836996.0,102.7397260274067
1383,837504.0,118.11023622046356
1384,838084.0,103.44827586208194
1385,838668.0,102.7397260273867
1386,839324.0,91.46341463415344
1387,839904.0,103.44827586206166
1388,840408.0,119.04761904761453
1389,841020.0,98.0392156862799
1390,841640.0,96.77419354838639
1391,842224.0,102.7397260273867
1392,842804.0,103.44827586208194
1393,843312.0,118.11023622046356
1394,843928.0,97.40259740259971
1395,844476.0,109.48905109489014
1396,845056.0,103.44827586206166
1397,845712.0,91.46341463415344
1398,846216.0,119.04761904761453
1399,846828.0,98.0392156862799
1400,847376.0,109.48905109489014
1401,848028.0,92.02453987729446
1402,848536.0,118.11023622049
1403,849120.0,102.7397260273867
1404,849772.0,92.02453987729446
1405,850352.0,103.44827586208194
1406,850896.0,110.29411764706232
1407,851476.0,103.44827586206166
1408,852096.0,96.77419354838639
1409,852604.0,118.11023622046356
1410,853220.0,97.40259740259971
1411,853840.0,96.77419354838639
1412,854420.0,103.44827586208194
1413,855000.0,103.44827586206166
1414,855544.0,110.29411764706232
1415,856136.0,101.351351351354
1416,856720.0,102.7397260273867
1417,857272.0,108.69565217390893
1418,857896.0,96.15384615386003
1419,858448.0,108.69565217390893
1420,859100.0,92.02453987729446
1421,859660.0,107.14285714286758
1422,860244.0,102.7397260273867
1423,860864.0,96.77419354838639
1424,861444.0,103.44827586208194
1425,861996.0,108.69565217390893
1426,862616.0,96.77419354838639
1427,863188.0,104.8951048951044
1428,863688.0,120.0
1429,864264.0,104.16666666666272
1430,864848.0,102.7397260274067
1431,865408.0,107.14285714284583
1432,866076.0,89.82035928143627
1433,866580.0,119.04761904761453
1434,867224.0,93.16770186335324
1435,867724.0,120.0
1436,868280.0,107.9136690647625
1437,868856.0,104.16666666666272
1438,869436.0,103.44827586206166
1439,870108.0,89.285714285726
1440,870648.0,111.1111111110952
1441,871264.0,97.40259740259971
1442,871836.0,104.8951048951044
1443,872364.0,113.63636363635933
1444,872972.0,98.68421052632435
1445,873468.0,120.96774193548853
1446,874028.0,107.14285714284583
1447,874600.0,104.8951048951044
1448,875220.0,96.77419354838639
1449,875828.0,98.68421052632435
1450,876312.0,123.96694214875077
1451,876912.0,99.9999999999962
1452,877480.0,105.63380281690445
1453,878040.0,107.14285714286758
1454,878632.0,101.351351351354
1455,879268.0,94.33962264149743
1456,879816.0,109.48905109489014
1457,880380.0,106.38297872341094
1458,880976.0,100.6711409395967
1459,881656.0,88.23529411765355
1460,882248.0,101.35135135133453
1461,882756.0,118.11023622049
1462,883372.0,97.40259740259971
1463,884000.0,95.54140127387885
1464,884628.0,95.54140127387885
1465,885148.0,115.38461538461942
1466,885812.0,90.36144578313426
1467,886392.0,103.44827586206166
1468,886944.0,108.69565217393131
1469,887528.0,102.7397260273867
1470,888080.0,108.69565217390893
1471,888740.0,90.9090909090953
1472,889324.0,102.7397260274067
1473,889844.0,115.3846153845942
1474,890436.0,101.351351351354
1475,891012.0,104.16666666668328
1476,891612.0,99.9999999999962
1477,892200.0,102.04081632651688
1478,892828.0,95.54140127389614
1479,893460.0,94.9367088607502
1480,893964.0,119.04761904761453
1481,894552.0,102.04081632653661
1482,895236.0,87.719298245618
1483,895812.0,104.16666666666272
1484,896336.0,114.50381679389294
1485,896964.0,95.54140127387885
1486,897588.0,96.15384615386003
1487,898176.0,102.04081632651688
1488,898688.0,117.1875000000129
1489,899340.0,92.02453987729446
1490,899916.0,104.16666666666272
1491,900500.0,102.7397260274067
1492,901084.0,102.7397260274067
1493,901592.0,118.11023622046356
1494,902212.0,96.77419354838639
1495,902828.0,97.40259740259971
1496,903420.0,101.351351351354
1497,904004.0,102.7397260273867
1498,904584.0,103.44827586208194
1499,905124.0,111.1111111110952
1500,905652.0,113.63636363635933
1501,906308.0,91.46341463415344
1502,906896.0,102.04081632653661
1503,907396.0,120.0
1504,908000.0,99.33774834436397
1505,908604.0,99.33774834436397
1506,909184.0,103.44827586208194
1507,909684.0,120.0
1508,910332.0,92.59259259258909
1509,910908.0,104.16666666666272
1510,911440.0,112.78195488720975
1511,912052.0,98.0392156862799
1512,912548.0,120.96774193548853
1513,913124.0,104.16666666666272
1514,913732.0,98.68421052632435
1515,914280.0,109.48905109489014
1516,914892.0,98.03921568626168
1517,915432.0,111.1111111111186
1518,916008.0,104.16666666666272
1519,916584.0,104.16666666668328
1520,917156.0,104.8951048951044
1521,917768.0,98.03921568626168
1522,918296.0,113.63636363635933
1523,918876.0,103.44827586208194
1524,919540.0,90.36144578313426
1525,920036.0,120.96774193548853
1526,920684.0,92.59259259258909
1527,921180.0,120.96774193548853
1528,921784.0,99.33774834436397
1529,922392.0,98.6842105263059
1530,922880.0,122.95081967214558
1531,923544.0,90.36144578313426
1532,924052.0,118.11023622046356
1533,924696.0,93.16770186335324
1534,925208.0,117.1875000000129
1535,925820.0,98.03921568626168
1536,926368.0,109.48905109489014
1537,927028.0,90.9090909090953
1538,927616.0,102.04081632653661
1539,928132.0,116.27906976745027
1540,928716.0,102.7397260273867
1541,929304.0,102.04081632653661
1542,929960.0,91.46341463413759
1543,930524.0,106.38297872341094
1544,931120.0,100.6711409395967
1545,931708.0,102.04081632653661
1546,932304.0,100.6711409395967
1547,932928.0,96.15384615384251
1548,933508.0,103.44827586206166
1549,934104.0,100.6711409395967
1550,934696.0,101.351351351354
1551,935204.0,118.11023622049
1552,935796.0,101.35135135133453
1553,936496.0,85.71428571429406
1554,937060.0,106.38297872341094
1555,937668.0,98.6842105263059
1556,938316.0,92.59259259258909
1557,938832.0,116.27906976745027
1558,939512.0,88.23529411765355
1559,940040.0,113.63636363635933
1560,940636.0,100.6711409395967
1561,941236.0,99.9999999999962
1562,941840.0,99.33774834436397
1563,942436.0,100.6711409395967
1564,943048.0,98.0392156862799
1565,943712.0,90.36144578313426
1566,944216.0,119.04761904761453
1567,944896.0,88.23529411765355
1568,945392.0,120.96774193546081
1569,945984.0,101.351351351354
1570,946572.0,102.04081632653661
1571,947212.0,93.750000000002
1572,947744.0,112.78195488720975
1573,948352.0,98.68421052632435
1574,948964.0,98.03921568626168
1575,949500.0,111.94029850747427
1576,950092.0,101.351351351354
1577,950704.0,98.0392156862799
1578,951356.0,92.02453987729446
1579,952024.0,89.82035928143627
1580,952632.0,98.68421052632435
1581,953192.0,107.14285714284583
1582,953880.0,87.2093023255829
1583,954440.0,107.14285714284583
1584,955036.0,100.67114093961591
1585,955760.0,82.87292817679027
1586,956312.0,108.69565217390893
1587,956912.0,99.9999999999962
1588,957588.0,88.75739644971321
1589,958168.0,103.44827586206166
1590,958812.0,93.16770186335324
1591,959512.0,85.71428571429406
1592,960080.0,105.6338028168833
1593,960696.0,97.40259740259971
1594,961336.0,93.750000000002
1595,961976.0,93.750000000002
1596,962728.0,79.78723404255821
1597,963284.0,107.91366906474043
1598,963936.0,92.02453987729446
1599,964660.0,82.87292817680328
1600,965208.0,109.48905109489014
1601,965856.0,92.59259259258909
1602,966516.0,90.9090909090953
1603,967148.0,94.9367088607502
1604,967792.0,93.16770186335324
1605,968436.0,93.16770186335324
1606,969080.0,93.16770186335324
1607,969772.0,86.70520231213781
1608,970348.0,104.16666666668328
1609,971072.0,82.87292817679027
1610,971688.0,97.40259740259971
1611,972232.0,110.29411764706232
1612,972852.0,96.77419354838639
1613,973460.0,98.6842105263059
1614,974076.0,97.40259740259971
1615,974684.0,98.68421052632435
1616,975268.0,102.7397260273867
1617,975864.0,100.6711409395967
1618,976480.0,97.40259740259971
1619,977088.0,98.68421052632435
1620,977756.0,89.82035928143627
1621,978332.0,104.16666666666272
1622,979004.0,89.2857142857109
1623,979572.0,105.63380281690445
1624,980176.0,99.33774834436397
1625,980792.0,97.40259740259971
1626,981412.0,96.77419354838639
1627,982028.0,97.40259740259971
1628,982640.0,98.0392156862799
1629,983264.0,96.15384615384251
1630,983892.0,95.54140127387885
1631,984524.0,94.93670886076728
1632,985148.0,96.15384615384251
1633,985792.0,93.16770186335324
1634,986440.0,92.59259259258909
1635,987008.0,105.63380281690445
1636,987632.0,96.15384615386003
1637,988248.0,97.40259740258173
1638,988860.0,98.0392156862799
1639,989540.0,88.23529411765355
1640,990132.0,101.351351351354
1641,990684.0,108.69565217390893
1642,991212.0,113.63636363635933
1643,991792.0,103.44827586206166
1644,992376.0,102.7397260274067
1645,993024.0,92.59259259258909
1646,993600.0,104.16666666666272
1647,994080.0,124.99999999999527
1648,994720.0,93.750000000002
1649,995284.0,106.38297872341094
1650,995912.0,95.54140127387885
1651,996560.0,92.59259259260533
1652,997196.0,94.33962264149743
1653,997704.0,118.11023622049
1654,998304.0,99.9999999999962
1655,998896.0,101.351351351354
1656,999496.0,99.9999999999962
1657,1000100.0,99.33774834436397
1658,1000680.0,103.44827586208194
1659,1001332.0,92.02453987729446
1660,1001816.0,123.96694214875077
1661,1002448.0,94.93670886076728
1662,1003060.0,98.0392156862799
1663,1003544.0,123.96694214875077
1664,1004136.0,101.351351351354
1665,1004744.0,98.6842105263059
1666,1005256.0,117.1875000000129
1667,1005820.0,106.3829787233895
1668,1006388.0,105.63380281690445
1669,1006964.0,104.16666666666272
1670,1007556.0,101.351351351354
1671,1008196.0,93.750000000002
1672,1008680.0,123.96694214877989
1673,1009264.0,102.7397260273867
1674,1009848.0,102.7397260274067
1675,1010440.0,101.35135135133453
1676,1011020.0,103.44827586208194
1677,1011636.0,97.40259740259971
1678,1012272.0,94.33962264149743
1679,1012820.0,109.48905109489014
1680,1013516.0,86.20689655173496
1681,1014036.0,115.38461538461942
1682,1014612.0,104.16666666666272
1683,1015208.0,100.6711409395967
1684,1015804.0,100.6711409395967
1685,1016404.0,99.9999999999962
1686,1016996.0,101.351351351354
1687,1017660.0,90.36144578313426
1688,1018224.0,106.3829787233895
1689,1018808.0,102.7397260274067
1690,1019412.0,99.33774834436397
1691,1020008.0,100.6711409395967
1692,1020612.0,99.33774834438267
1693,1021216.0,99.33774834436397
1694,1021836.0,96.77419354838639
1695,1022452.0,97.40259740259971
1696,1023072.0,96.77419354838639
1697,1023664.0,101.351351351354
1698,1024280.0,97.40259740259971
1699,1024864.0,102.7397260273867
1700,1025496.0000000001,94.9367088607502
1701,1026036.0,111.1111111111186
1702,1026715.9999999999,88.2352941176683
1703,1027215.9999999999,120.0
1704,1027912.0,86.20689655170679
1705,1028412.0,120.0
1706,1029000.0,102.04081632653661
1707,1029560.0,107.14285714286758
1708,1030180.0000000001,96.77419354836864
1709,1030771.9999999999,101.35135135137347
1710,1031364.0,101.35135135133453
1711,1031996.0000000001,94.9367088607502
1712,1032523.9999999999,113.63636363640826
1713,1033184.0,90.90909090907964
1714,1033667.9999999999,123.96694214877989
1715,1034243.9999999999,104.16666666666272
1716,1034824.0000000001,103.44827586204138
1717,1035400.0000000001,104.16666666666272
1718,1035952.0,108.69565217393131
1719,1036608.0,91.46341463415344
1720,1037156.0,109.48905109489014
1721,1037708.0000000001,108.69565217388654
1722,1038291.9999999999,102.7397260274267
1723,1038896.0,99.33774834436397
1724,1039496.0000000001,99.99999999997726
1725,1040088.0,101.35135135137347
1726,1040704.0,97.40259740259971
1727,1041284.0000000001,103.44827586204138
1728,1041960.0,88.75739644971321
1729,1042468.0000000001,118.11023622046356
1730,1043051.9999999999,102.7397260274267
1731,1043652.0,99.99999999997726
1732,1044220.0,105.63380281690445
1733,1044796.0,104.16666666666272
1734,1045460.0,90.36144578313426
1735,1045955.9999999999,120.96774193551626
1736,1046632.0000000001,88.75739644968337
1737,1047124.0,121.95121951220459
1738,1047704.0,103.44827586208194
1739,1048344.0,93.74999999998535
1740,1048932.0,102.04081632653661
1741,1049540.0,98.68421052632435
1742,1050044.0,119.04761904758769
1743,1050688.0,93.16770186335324
1744,1051216.0,113.63636363640826
1745,1051804.0,102.04081632649715
1746,1052384.0,103.44827586208194
1747,1052980.0,100.6711409395967
1748,1053552.0,104.89510489512524
1749,1054132.0,103.44827586204138
1750,1054712.0,103.44827586208194
1751,1055292.0,103.44827586208194
1752,1055872.0,103.44827586204138
1753,1056456.0,102.7397260274267
1754,1057028.0,104.89510489508355
1755,1057616.0,102.04081632653661
1756,1058208.0,101.35135135133453
1757,1058780.0,104.89510489512524
1758,1059372.0,101.35135135133453
1759,1059944.0,104.89510489512524
1760,1060580.0,94.3396226415143
1761,1061100.0,115.38461538461942
1762,1061676.0,104.16666666666272
1763,1062252.0,104.16666666666272
1764,1062880.0,95.54140127386155
1765,1063400.0,115.38461538461942
1766,1063964.0,106.38297872343239
1767,1064560.0,100.6711409395967
1768,1065116.0,107.91366906474043
1769,1065672.0,107.91366906474043
1770,1066232.0,107.14285714286758
1771,1066760.0,113.63636363635933
1772,1067356.0,100.6711409395967
1773,1067924.0,105.63380281690445
1774,1068492.0,105.63380281690445
1775,1069068.0,104.16666666666272
1776,1069636.0,105.63380281690445
1777,1070188.0,108.69565217388654
1778,1070784.0,100.6711409395967
1779,1071332.0,109.48905109489014
1780,1071912.0,103.44827586208194
1781,1072496.0,102.7397260273867
1782,1073128.0,94.93670886078436
1783,1073652.0,114.50381679386808
1784,1074224.0,104.89510489512524
1785,1074804.0,103.44827586204138
1786,1075388.0,102.7397260274267
1787,1075976.0,102.04081632649715
1788,1076528.0,108.69565217393131
1789,1077144.0,97.40259740259971
1790,1077724.0,103.44827586208194
1791,1078348.0,96.15384615384251
1792,1078872.0,114.50381679386808
1793,1079456.0,102.7397260274267
1794,1080032.0,104.16666666666272
1795,1080668.0,94.3396226415143
1796,1081192.0,114.50381679386808
1797,1081768.0,104.16666666666272
1798,1082344.0,104.16666666666272
1799,1082916.0,104.89510489512524
1800,1083496.0,103.44827586204138
1801,1084052.0,107.91366906478457
1802,1084672.0,96.77419354836864
1803,1085344.0,89.2857142857109
1804,1085832.0,122.95081967211694
1805,1086504.0,89.28571428574111
1806,1086988.0,123.96694214872166
1807,1087576.0,102.04081632653661
1808,1088208.0,94.9367088607502
1809,1088732.0,114.50381679391778
1810,1089312.0,103.44827586208194
1811,1089972.0,90.90909090907964
1812,1090456.0,123.96694214877989
1813,1091120.0,90.36144578313426
1814,1091576.0,131.57894736838327
1815,1092192.0,97.40259740259971
1816,1092800.0,98.68421052632435
1817,1093380.0,103.44827586204138
1818,1093984.0,99.33774834440138
1819,1094648.0,90.36144578313426
1820,1095148.0,120.0
1821,1095832.0,87.71929824558885
1822,1096420.0,102.04081632653661
1823,1096980.0,107.14285714286758
1824,1097540.0,107.14285714286758
1825,1098144.0,99.33774834436397
1826,1098816.0,89.2857142857109
1827,1099400.0,102.7397260273867
1828,1100048.0,92.59259259260533
1829,1100612.0,106.3829787233895
1830,1101216.0,99.33774834440138
1831,1101852.0,94.33962264148056
1832,1102452.0,100.00000000001516
1833,1102964.0,117.1875000000129
1834,1103556.0,101.35135135133453
1835,1104152.0,100.6711409395967
1836,1104796.0,93.16770186335324
1837,1105360.0,106.38297872343239
1838,1105972.0,98.03921568626168
1839,1106516.0,110.29411764703927
1840,1107100.0,102.7397260274267
1841,1107680.0,103.44827586204138
1842,1108320.0,93.75000000001866
1843,1108824.0,119.04761904758769
1844,1109516.0,86.70520231213781
1845,1110012.0,120.96774193551626
1846,1110608.0,100.6711409395967
1847,1111280.0,89.2857142857109
1848,1111784.0,119.04761904758769
1849,1112368.0,102.7397260274267
1850,1113048.0,88.2352941176388
1851,1113548.0,120.0
1852,1114140.0,101.35135135133453
1853,1114732.0,101.35135135137347
1854,1115420.0,87.20930232556849
1855,1115928.0,118.11023622046356
1856,1116580.0,92.02453987732655
1857,1117176.0,100.6711409395967
1858,1117688.0,117.18749999996086
1859,1118376.0,87.2093023255973
1860,1118852.0,126.05042016803736
1861,1119536.0,87.719298245618
1862,1120044.0,118.11023622046356
1863,1120744.0,85.71428571430799
1864,1121244.0,120.0
1865,1121960.0,83.79888268154998
1866,1122392.0,138.88888888888363
1867,1123180.0,76.14213197969438
1868,1123620.0,136.36363636368992
1869,1124424.0,74.62686567163368
1870,1124872.0,133.9285714285437
1871,1125660.0,76.14213197969438
1872,1126096.0,137.61467889910725
1873,1126896.0,75.00000000000426
1874,1127364.0,128.20512820510777
1875,1128172.0,74.25742574257492
1876,1128640.0,128.20512820510777
1877,1129496.0,70.09345794392569
1878,1129960.0,129.31034482760242
1879,1130800.0,71.4285714285784
1880,1131444.0,93.16770186335324
1881,1132208.0,78.53403141359985
1882,1132560.0,170.4545454546124
1883,1132872.0,192.30769230761496
1884,1133388.0,116.27906976747589
1885,1134012.0,96.15384615384251
1886,1134636.0,96.15384615384251
1887,1135272.0,94.3396226415143
1888,1135948.0,88.75739644968337
1889,1136532.0,102.7397260274267
1890,1137132.0,99.99999999997726
1891,1137752.0,96.77419354840413
1892,1138396.0,93.16770186335324
1893,1139040.0,93.16770186335324
1894,1139604.0,106.3829787233895
1895,1140300.0,86.20689655173496
1896,1140832.0,112.78195488718565
1897,1141440.0,98.68421052632435
1898,1142076.0,94.3396226415143
1899,1142672.0,100.6711409395967
1900,1143264.0,101.35135135137347
1901,1143884.0,96.77419354836864
1902,1144492.0,98.68421052632435
1903,1145108.0,97.40259740259971
1904,1145720.0,98.03921568626168
1905,1146332.0,98.03921568626168
1906,1146944.0,98.0392156862981
1907,1147652.0,84.7457627118544
1908,1147988.0,178.5714285714218
1909,1148824.0,71.77033492822858
1910,1149260.0,137.61467889910725
1911,1150032.0,77.7202072538926
1912,1150512.0,124.99999999999527
1913,1151252.0,81.08108108108009
1914,1151724.0,127.118644067802
1915,1152452.0,82.417582417575
1916,1152936.0,123.96694214877989
1917,1153644.0,84.7457627118544
1918,1154188.0,110.29411764703927
1919,1154912.0,82.87292817680328
1920,1155400.0,122.95081967211694
1921,1155996.0,100.6711409395967
1922,1156628.0,94.93670886078436
1923,1157180.0,108.69565217388654
1924,1157760.0,103.44827586208194
1925,1158412.0,92.02453987729446
1926,1158920.0,118.11023622046356
1927,1159500.0,103.44827586208194
1928,1160080.0,103.44827586208194
1929,1160732.0,92.02453987729446
1930,1161312.0,103.44827586208194
1931,1161804.0,121.95121951214823
1932,1162384.0,103.44827586208194
1933,1163016.0,94.9367088607502
1934,1163548.0,112.78195488723385
1935,1164152.0,99.33774834436397
1936,1164812.0,90.90909090911096
1937,1165308.0,120.96774193546081
1938,1165900.0,101.35135135133453
1939,1166488.0,102.04081632653661
1940,1167156.0,89.82035928145156
1941,1167704.0,109.48905109489014
1942,1168228.0,114.50381679386808
1943,1168812.0,102.7397260274267
1944,1169384.0,104.89510489508355
1945,1169956.0,104.89510489512524
1946,1170544.0,102.04081632649715
1947,1171092.0,109.48905109489014
1948,1171676.0,102.7397260274267
1949,1172276.0,99.99999999997726
1950,1172800.0,114.50381679391778
1951,1173396.0,100.6711409395967
1952,1174048.0,92.02453987729446
1953,1174528.0,124.99999999999527
1954,1175192.0,90.36144578313426
1955,1175764.0,104.89510489512524
1956,1176324.0,107.14285714282408
1957,1176856.0,112.78195488723385
1958,1177408.0,108.69565217393131
1959,1179664.0,26.595744680850057
1960,1180220.0,107.91366906474043
1961,1180844.0,96.15384615384251
1962,1181380.0,111.94029850745054
1963,1181960.0,103.44827586208194
1964,1182516.0,107.91366906474043
1965,1183100.0,102.7397260274267
1966,1183652.0,108.69565217388654
1967,1184244.0,101.35135135137347
1968,1184812.0,105.63380281690445
1969,1185372.0,107.14285714282408
1970,1185936.0,106.38297872343239
1971,1186496.0,107.14285714282408
1972,1187140.0,93.16770186335324
1973,1187712.0,104.89510489512524
1974,1188176.0,129.31034482760242
1975,1188788.0,98.03921568626168
1976,1189292.0,119.04761904764139
1977,1189928.0,94.33962264148056
1978,1190448.0,115.38461538461942
1979,1191040.0,101.35135135137347
1980,1191516.0,126.05042016803736
1981,1192144.0,95.54140127389614
1982,1192600.0,131.57894736844887
1983,1193244.0,93.16770186335324
1984,1193712.0,128.20512820510777
1985,1194248.0,111.94029850745054
1986,1194788.0,111.1111111111186
1987,1195344.0,107.91366906474043
1988,1195880.0,111.94029850745054
1989,1196448.0,105.63380281690445
1990,1196988.0,111.1111111111186
1991,1197564.0,104.16666666666272
1992,1198204.0,93.75000000001866
1993,1198760.0,107.91366906474043
1994,1199220.0,130.43478260868534
1995,1199872.0,92.02453987729446
1996,1200440.0,105.63380281690445
1997,1200916.0,126.05042016809757
1998,1201480.0,106.3829787233895
1999,1202112.0,94.9367088607502
2000,1202600.0,122.95081967217423
2001,1203144.0,110.29411764703927
2002,1203700.0,107.91366906474043
2003,1204264.0,106.38297872343239
2004,1204828.0,106.3829787233895
2005,1205392.0,106.3829787233895
2006,1205956.0,106.38297872343239
2007,1206528.0,104.89510489508355
2008,1207076.0,109.48905109489014
2009,1207644.0,105.63380281690445
2010,1208204.0,107.14285714286758
2011,1208776.0,104.89510489508355
2012,1209404.0,95.54140127389614
2013,1210012.0,98.68421052632435
2014,1210500.0,122.95081967211694
2015,1211152.0,92.02453987729446
2016,1211624.0,127.118644067802
2017,1212212.0,102.04081632653661
2018,1212852.0,93.74999999998535
2019,1213336.0,123.96694214877989
2020,1213916.0,103.44827586208194
2021,1214568.0,92.02453987729446
2022,1215068.0,120.0
2023,1215648.0,103.44827586208194
2024,1216220.0,104.89510489508355
2025,1216808.0,102.04081632653661
2026,1217388.0,103.44827586208194
2027,1217968.0,103.44827586204138
2028,1218548.0,103.44827586208194
2029,1219164.0,97.40259740259971
2030,1219776.0,98.03921568626168
2031,1220256.0,124.99999999999527
2032,1220836.0,103.44827586208194
2033,1221196.0,166.66666666671298
2034,1221500.0,197.3684210525749
2035,1221888.0,154.63917525776387
2036,1222540.0,92.02453987729446
2037,1223200.0,90.90909090907964
2038,1223668.0,128.20512820517007
2039,1224244.0,104.16666666666272
2040,1224908.0,90.36144578313426
2041,1225372.0,129.31034482753907
2042,1225932.0,107.14285714286758
2043,1226500.0,105.63380281690445
2044,1227064.0,106.3829787233895
2045,1227376.0,192.3076923077551
2046,1227696.0,187.50000000003732
2047,1228184.0,122.95081967211694
2048,1228752.0,105.63380281690445
2049,1229312.0,107.14285714286758
2050,1229968.0,91.46341463412175
2051,1230532.0,106.38297872343239
2052,1230996.0,129.31034482753907
2053,1231556.0,107.14285714286758
2054,1232184.0,95.54140127389614
2055,1232692.0,118.11023622046356
2056,1233248.0,107.91366906474043
2057,1233908.0,90.90909090911096
2058,1234380.0,127.11864406774076
2059,1234952.0,104.89510489512524
2060,1235560.0,98.68421052632435
2061,1236068.0,118.11023622046356
2062,1236724.0,91.46341463415344
2063,1237280.0,107.91366906474043
2064,1237776.0,120.96774193546081
2065,1238324.0,109.48905109489014
2066,1238884.0,107.14285714286758
2067,1239444.0,107.14285714286758
2068,1240024.0,103.44827586208194
2069,1240672.0,92.59259259257284
2070,1241144.0,127.118644067802
2071,1241708.0,106.3829787233895
2072,1242284.0,104.16666666666272
2073,1242908.0,96.15384615387755
2074,1243520.0,98.03921568626168
2075,1243992.0,127.118644067802
2076,1244664.0,89.2857142857109
2077,1245152.0,122.95081967211694
2078,1245740.0,102.04081632653661
2079,1246304.0,106.3829787233895
2080,1246884.0,103.44827586208194
2081,1247472.0,102.04081632653661
2082,1248068.0,100.6711409395967
2083,1248648.0,103.44827586208194
2084,1249308.0,90.90909090907964
2085,1249808.0,120.0
2086,1250412.0,99.33774834436397
2087,1250988.0,104.16666666666272
2088,1251588.0,100.00000000001516
2089,1252180.0,101.35135135133453
2090,1252792.0,98.0392156862981
2091,1253368.0,104.16666666666272
2092,1253980.0,98.03921568626168
2093,1254564.0,102.7397260273867
2094,1255256.0,86.70520231213781
2095,1255768.0,117.1875000000129
2096,1256456.0,87.2093023255973
2097,1257056.0,99.99999999997726
2098,1257580.0,114.50381679391778
2099,1258208.0,95.54140127386155
2100,1258808.0,100.00000000001516
2101,1259568.0,78.94736842105358
2102,1260180.0,98.03921568626168
2103,1260932.0,79.78723404255821
2104,1261504.0,104.89510489512524
2105,1262176.0,89.2857142857109
2106,1262928.0,79.78723404253408
2107,1263544.0,97.40259740259971
2108,1264148.0,99.33774834440138
2109,1264872.0,82.87292817677725
2110,1265420.0,109.48905109489014
2111,1266028.0,98.68421052632435
2112,1266708.0,88.2352941176388
2113,1267364.0,91.46341463415344
2114,1267892.0,113.63636363635933
2115,1268508.0,97.40259740259971
2116,1269128.0,96.77419354840413
2117,1269748.0,96.77419354836864
2118,1270392.0,93.16770186335324
2119,1271052.0,90.90909090911096
2120,1271720.0,89.82035928142098
2121,1272356.0,94.3396226415143
2122,1273000.0,93.16770186335324
2123,1273636.0,94.3396226415143
2124,1274272.0,94.3396226415143
2125,1274900.0,95.54140127386155
2126,1275588.0,87.2093023255973
2127,1276184.0,100.6711409395967
2128,1276824.0,93.74999999998535
2129,1277460.0,94.3396226415143
2130,1278084.0,96.15384615384251
2131,1278708.0,96.15384615384251
2132,1279336.0,95.54140127389614
2133,1279968.0,94.9367088607502
2134,1280596.0,95.54140127389614
2135,1281216.0,96.77419354840413
2136,1281852.0,94.33962264148056
2137,1282476.0,96.15384615384251
2138,1283192.0,83.7988826815766
2139,1283724.0,112.78195488723385
2140,1284404.0,88.2352941176388
2141,1284976.0,104.89510489508355
2142,1285600.0,96.15384615387755
2143,1286316.0,83.79888268154998
2144,1286844.0,113.63636363635933
2145,1287492.0,92.59259259260533
2146,1288184.0,86.70520231213781
2147,1288764.0,103.44827586208194
2148,1289408.0,93.16770186335324
2149,1290116.0,84.7457627118544
2150,1290636.0,115.38461538461942
2151,1291252.0,97.40259740259971
2152,1291864.0,98.03921568626168
2153,1292492.0,95.54140127389614
2154,1293108.0,97.40259740259971
2155,1293744.0,94.3396226415143
2156,1294460.0,83.79888268154998
2157,1295032.0,104.89510489512524
2158,1295788.0,79.36507936507039
2159,1296352.0,106.3829787233895
2160,1297008.0,91.46341463415344
2161,1297648.0,93.75000000001866
2162,1298328.0,88.2352941176388
2163,1299088.0,78.94736842105358
2164,1299680.0,101.35135135133453
2165,1300332.0,92.02453987729446
2166,1300996.0,90.36144578313426
2167,1301732.0,81.52173913044848
2168,1302316.0,102.7397260273867
2169,1303056.0,81.08108108108009
2170,1303656.0,100.00000000001516
2171,1304300.0,93.16770186335324
2172,1304992.0,86.70520231213781
2173,1305580.0,102.04081632653661
2174,1306292.0,84.2696629213496
2175,1306952.0,90.90909090907964
2176,1307664.0,84.2696629213496
2177,1308308.0,93.16770186335324
2178,1309004.0,86.20689655173496
2179,1309600.0,100.6711409395967
2180,1310240.0,93.74999999998535
2181,1310880.0,93.74999999998535
2182,1311592.0,84.2696629213496
2183,1312152.0,107.14285714286758
2184,1312892.0,81.08108108108009
2185,1313452.0,107.14285714286758
2186,1314080.0,95.54140127389614
2187,1314720.0,93.74999999998535
2188,1315392.0,89.2857142857109
2189,1316052.0,90.90909090911096
2190,1316720.0,89.82035928142098
2191,1317428.0,84.7457627118544
2192,1318140.0,84.2696629213496
2193,1318700.0,107.14285714286758
2194,1319356.0,91.46341463415344
2195,1319988.0,94.9367088607502
2196,1320624.0,94.3396226415143
2197,1321268.0,93.16770186335324
2198,1322040.0,77.7202072538926
2199,1322600.0,107.14285714286758
2200,1323276.0,88.75739644968337
2201,1323932.0,91.46341463415344
2202,1324592.0,90.90909090907964
2203,1325316.0,82.87292817680328
2204,1325900.0,102.7397260273867
2205,1326576.0,88.75739644971321
2206,1327168.0,101.35135135137347
2207,1327804.0,94.33962264148056
2208,1328544.0,81.08108108108009
2209,1329188.0,93.16770186335324
2210,1329788.0,100.00000000001516
2211,1330384.0,100.6711409395967
2212,1331008.0,96.15384615384251
2213,1331688.0,88.2352941176388
2214,1332340.0,92.02453987732655
2215,1332916.0,104.16666666666272
2216,1333556.0,93.74999999998535
2217,1334084.0,113.63636363635933
2218,1334692.0,98.68421052632435
2219,1335300.0,98.68421052632435
2220,1335956.0,91.46341463415344
2221,1336556.0,99.99999999997726
2222,1337112.0,107.91366906474043
2223,1337708.0,100.6711409395967
2224,1338320.0,98.0392156862981
2225,1338984.0,90.36144578313426
2226,1339484.0,120.0
2227,1340136.0,92.02453987729446
2228,1340680.0,110.29411764703927
2229,1341348.0,89.82035928145156
2230,1341900.0,108.69565217388654
2231,1342436.0,111.94029850749801
2232,1343028.0,101.35135135133453
2233,1343608.0,103.44827586208194
2234,1344184.0,104.16666666666272
2235,1344856.0,89.2857142857109
2236,1345344.0,122.95081967211694
2237,1345916.0,104.89510489512524
2238,1346500.0,102.7397260273867
2239,1347092.0,101.35135135133453
2240,1347660.0,105.63380281690445
2241,1348240.0,103.44827586208194
2242,1348844.0,99.33774834436397
2243,1349416.0,104.89510489512524
2244,1350008.0,101.35135135133453
2245,1350600.0,101.35135135137347
2246,1351192.0,101.35135135133453
2247,1351780.0,102.04081632653661
2248,1352476.0,86.20689655170679
2249,1353072.0,100.67114093963511
2250,1353568.0,120.96774193546081
2251,1354216.0,92.59259259260533
2252,1354760.0,110.29411764703927
2253,1355444.0,87.719298245618
2254,1355948.0,119.04761904758769
2255,1356556.0,98.68421052632435
2256,1357136.0,103.44827586208194
2257,1357836.0,85.71428571428015
2258,1358444.0,98.68421052632435
2259,1359056.0,98.03921568626168
2260,1359672.0,97.40259740259971
2261,1360284.0,98.03921568626168
2262,1360792.0,118.11023622051643
2263,1361416.0,96.15384615384251
2264,1362092.0,88.75739644968337
2265,1362620.0,113.63636363640826
2266,1363268.0,92.59259259257284
2267,1363952.0,87.719298245618
2268,1364512.0,107.14285714286758
2269,1365104.0,101.35135135133453
2270,1365732.0,95.54140127389614
2271,1366384.0,92.02453987729446
2272,1366992.0,98.68421052632435
2273,1367632.0,93.74999999998535
2274,1368252.0,96.77419354840413
2275,1368936.0,87.719298245618
2276,1369500.0,106.3829787233895
2277,1370216.0,83.7988826815766
2278,1370748.0,112.78195488718565
2279,1371380.0,94.9367088607502
2280,1372100.0,83.33333333335649
2281,1372624.0,114.50381679386808
2282,1373244.0,96.77419354840413
2283,1373852.0,98.68421052628744
2284,1374564.0,84.2696629213496
2285,1375084.0,115.38461538461942
2286,1375716.0,94.93670886078436
2287,1376320.0,99.33774834436397
2288,1376928.0,98.68421052628744
2289,1377548.0,96.77419354840413
2290,1378148.0,100.00000000001516
2291,1378856.0,84.7457627118544
2292,1379384.0,113.63636363635933
2293,1380000.0,97.40259740259971
2294,1380608.0,98.68421052632435
2295,1381204.0,100.6711409395967
2296,1381868.0,90.36144578313426
2297,1382432.0,106.3829787233895
2298,1383036.0,99.33774834436397
2299,1383644.0,98.68421052632435
2300,1384232.0,102.04081632653661
2301,1384840.0,98.68421052632435
2302,1385420.0,103.44827586204138
2303,1386016.0,100.6711409395967
2304,1386704.0,87.2093023255973
2305,1387212.0,118.11023622046356
2306,1387792.0,103.44827586208194
2307,1388400.0,98.68421052628744
2308,1389076.0,88.75739644971321
2309,1389576.0,120.0
2310,1390232.0,91.46341463415344
2311,1390868.0,94.3396226415143
2312,1391396.0,113.63636363635933
2313,1391988.0,101.35135135133453
2314,1392600.0,98.0392156862981
2315,1393236.0,94.33962264148056
2316,1393912.0,88.75739644971321
2317,1394480.0,105.63380281690445
2318,1395104.0,96.15384615384251
2319,1395836.0,81.96721311475736
2320,1396364.0,113.63636363635933
2321,1397000.0,94.3396226415143
2322,1397708.0,84.7457627118544
2323,1398340.0,94.93670886078436
2324,1399060.0,83.33333333333017
2325,1399652.0,101.35135135133453
2326,1400264.0,98.0392156862981
2327,1400888.0,96.15384615384251
2328,1401516.0,95.54140127386155
2329,1402132.0,97.40259740259971
2330,1402744.0,98.0392156862981
2331,1403404.0,90.90909090907964
2332,1404032.0,95.54140127389614
2333,1404644.0,98.03921568626168
2334,1405320.0,88.75739644971321
2335,1405876.0,107.91366906474043
2336,1406592.0,83.79888268154998
2337,1407116.0,114.50381679391778
2338,1407732.0,97.40259740259971
2339,1408424.0,86.70520231213781
2340,1409044.0,96.77419354836864
2341,1409572.0,113.63636363640826
2342,1410200.0,95.54140127386155
2343,1410908.0,84.74576271188161
2344,1411476.0,105.63380281686217
2345,1412108.0,94.93670886078436
2346,1412736.0,95.54140127386155
2347,1413424.0,87.2093023255973
2348,1414008.0,102.7397260273867
2349,1414636.0,95.54140127389614
2350,1415268.0,94.9367088607502
2351,1415896.0,95.54140127389614
2352,1416532.0,94.3396226415143
2353,1417148.0,97.40259740259971
2354,1417780.0,94.9367088607502
2355,1418408.0,95.54140127389614
2356,1419084.0,88.75739644968337
2357,1419660.0,104.16666666666272
2358,1420396.0,81.52173913044848
2359,1421008.0,98.03921568626168
2360,1421596.0,102.04081632653661
2361,1422252.0,91.46341463415344
2362,1422888.0,94.3396226415143
2363,1423540.0,92.02453987729446
2364,1424312.0,77.7202072538926
2365,1424868.0,107.91366906474043
2366,1425500.0,94.9367088607502
2367,1426148.0,92.59259259260533
2368,1426900.0,79.78723404253408
2369,1427532.0,94.93670886078436
2370,1428216.0,87.719298245618
2371,1428764.0,109.48905109489014
2372,1429240.0,126.05042016803736
2373,1430056.0,73.5294117647031
2374,1430548.0,121.95121951220459
2375,1431396.0,70.75471698113572
2376,1431808.0,145.63106796115284
2377,1432612.0,74.62686567163368
2378,1433104.0,121.95121951220459
2379,1433876.0,77.7202072538926
2380,1434372.0,120.96774193546081
2381,1435144.0,77.7202072538926
2382,1435576.0,138.88888888888363
2383,1436416.0,71.4285714285784
2384,1436896.0,124.99999999999527
2385,1437684.0,76.14213197969438
2386,1438108.0,141.50943396227143
2387,1438940.0,72.11538461537532
2388,1439336.0,151.51515151516753
2389,1440160.0,72.81553398057642
2390,1440632.0,127.118644067802
2391,1441384.0,79.78723404255821
2392,1441884.0,120.0
2393,1442608.0,82.87292817680328
2394,1443140.0,112.78195488718565
2395,1443832.0,86.70520231213781
2396,1444356.0,114.50381679391778
2397,1445032.0,88.75739644971321
2398,1445632.0,99.99999999997726
2399,1446240.0,98.68421052632435
2400,1446920.0,88.2352941176388
2401,1447424.0,119.04761904764139
2402,1448108.0,87.719298245618
2403,1448708.0,99.99999999997726
2404,1449232.0,114.50381679391778
2405,1449856.0,96.15384615384251
2406,1450396.0,111.1111111111186
2407,1451104.0,84.7457627118544
2408,1451772.0,89.82035928145156
2409,1452480.0,84.7457627118544
2410,1453016.0,111.94029850745054
2411,1453732.0,83.7988826815766
2412,1454252.0,115.38461538461942
2413,1454876.0,96.15384615384251
2414,1455500.0,96.15384615384251
2415,1456112.0,98.03921568626168
2416,1456724.0,98.0392156862981
2417,1457428.0,85.22727272725115
2418,1457960.0,112.78195488723385
2419,1458560.0,100.00000000001516
2420,1459160.0,99.99999999997726
2421,1459776.0,97.40259740259971
2422,1460384.0,98.68421052632435
2423,1460992.0,98.68421052632435
2424,1461608.0,97.40259740259971
2425,1462332.0,82.87292817677725
2426,1462944.0,98.0392156862981
2427,1463536.0,101.35135135133453
2428,1464172.0,94.3396226415143
2429,1464820.0,92.59259259260533
2430,1465436.0,97.40259740259971
2431,1466064.0,95.54140127386155
2432,1466676.0,98.0392156862981
2433,1467300.0,96.15384615384251
2434,1467796.0,120.96774193546081
2435,1468624.0,72.46376811594426
2436,1469192.0,105.63380281690445
2437,1469936.0,80.64516129033184
2438,1470464.0,113.63636363635933
2439,1471184.0,83.33333333333017
2440,1471716.0,112.78195488723385
2441,1472444.0,82.417582417575
2442,1472972.0,113.63636363635933
2443,1473588.0,97.40259740259971
2444,1474220.0,94.9367088607502
2445,1474940.0,83.33333333333017
2446,1475476.0,111.94029850745054
2447,1476116.0,93.75000000001866
2448,1476832.0,83.79888268154998
2449,1477364.0,112.78195488723385
2450,1478072.0,84.74576271188161
2451,1478624.0,108.69565217388654
2452,1479244.0,96.77419354840413
2453,1479872.0,95.54140127386155
2454,1480488.0,97.40259740259971
2455,1481124.0,94.3396226415143
2456,1481760.0,94.3396226415143
2457,1482392.0,94.9367088607502
2458,1483028.0,94.3396226415143
2459,1483664.0,94.3396226415143
2460,1484424.0,78.94736842105358
2461,1484988.0,106.3829787233895
2462,1485640.0,92.02453987729446
2463,1486300.0,90.90909090911096
2464,1486976.0,88.75739644968337
2465,1487612.0,94.3396226415143
2466,1488252.0,93.75000000001866
2467,1488908.0,91.46341463415344
2468,1489644.0,81.5217391304233
2469,1490284.0,93.74999999998535
2470,1490832.0,109.48905109489014
2471,1491476.0,93.16770186335324
2472,1492228.0,79.78723404255821
2473,1492776.0,109.48905109489014
2474,1493520.0,80.64516129033184
2475,1494156.0,94.3396226415143
2476,1494700.0,110.29411764703927
2477,1495332.0,94.9367088607502
2478,1496024.0,86.7052023121663
2479,1496600.0,104.16666666666272
2480,1497328.0,82.417582417575
2481,1497864.0,111.94029850745054
2482,1498496.0,94.9367088607502
2483,1499140.0,93.16770186335324
2484,1499784.0,93.16770186335324
2485,1500440.0,91.46341463415344
2486,1501080.0,93.75000000001866
2487,1501724.0,93.16770186335324
2488,1502348.0,96.15384615384251
2489,1503064.0,83.79888268154998
2490,1503652.0,102.04081632653661
2491,1504236.0,102.7397260273867
2492,1504860.0,96.15384615387755
2493,1505480.0,96.77419354836864
2494,1506104.0,96.15384615384251
2495,1506748.0,93.16770186335324
2496,1507368.0,96.77419354840413
2497,1508088.0,83.33333333333017
2498,1508720.0,94.9367088607502
2499,1509260.0,111.1111111111186
2500,1509880.0,96.77419354836864
2501,1510592.0,84.2696629213496
2502,1511212.0,96.77419354840413
2503,1511748.0,111.94029850745054
2504,1512364.0,97.40259740259971
2505,1513064.0,85.71428571428015
2506,1513592.0,113.63636363635933
2507,1514296.0,85.22727272727867
2508,1514812.0,116.27906976747589
2509,1515416.0,99.33774834436397
2510,1516032.0,97.40259740259971
2511,1516572.0,111.1111111111186
2512,1517268.0,86.20689655170679
2513,1517876.0,98.68421052632435
2514,1518504.0,95.54140127389614
2515,1519120.0,97.40259740259971
2516,1519740.0,96.77419354836864
2517,1520340.0,100.00000000001516
2518,1521048.0,84.7457627118544
2519,1521648.0,100.00000000001516
2520,1522180.0,112.78195488718565
2521,1522848.0,89.82035928145156
2522,1523508.0,90.90909090907964
2523,1524044.0,111.94029850745054
2524,1524664.0,96.77419354840413
2525,1525304.0,93.74999999998535
2526,1525912.0,98.68421052632435
2527,1526540.0,95.54140127389614
2528,1527164.0,96.15384615384251
2529,1527832.0,89.82035928142098
2530,1528408.0,104.16666666670383
2531,1529060.0,92.02453987729446
2532,1529692.0,94.9367088607502
2533,1530324.0,94.9367088607502
2534,1530972.0,92.59259259260533
2535,1531620.0,92.59259259260533
2536,1532264.0,93.16770186335324
2537,1532912.0,92.59259259257284
2538,1533464.0,108.69565217393131
2539,1534172.0,84.7457627118544
2540,1534820.0,92.59259259260533
2541,1535540.0,83.33333333333017
2542,1536076.0,111.94029850745054
2543,1536720.0,93.16770186335324
2544,1537336.0,97.40259740259971
2545,1537960.0,96.15384615384251
2546,1538600.0,93.75000000001866
2547,1539232.0,94.9367088607502
2548,1539856.0,96.15384615384251
2549,1540496.0,93.74999999998535
2550,1541132.0,94.3396226415143
2551,1541760.0,95.54140127389614
2552,1542380.0,96.77419354836864
2553,1543012.0,94.93670886078436
2554,1543640.0,95.54140127386155
2555,1544360.0,83.33333333335649
2556,1544900.0,111.1111111110718
2557,1545524.0,96.15384615387755
2558,1546148.0,96.15384615384251
2559,1546856.0,84.7457627118544
2560,1547472.0,97.40259740259971
2561,1548088.0,97.40259740259971
2562,1548616.0,113.63636363635933
2563,1549240.0,96.15384615384251
2564,1549856.0,97.40259740259971
2565,1550472.0,97.40259740259971
2566,1551092.0,96.77419354836864
2567,1551768.0,88.75739644971321
2568,1552340.0,104.89510489512524
2569,1552960.0,96.77419354836864
2570,1553588.0,95.54140127389614
2571,1554224.0,94.3396226415143
2572,1554828.0,99.33774834436397
2573,1555448.0,96.77419354836864
2574,1556064.0,97.40259740259971
2575,1556692.0,95.54140127389614
2576,1557316.0,96.15384615384251
2577,1557932.0,97.40259740259971
2578,1558640.0,84.7457627118544
2579,1559168.0,113.63636363640826
2580,1559892.0,82.87292817677725
2581,1560560.0,89.82035928145156
2582,1561152.0,101.35135135133453
2583,1561868.0,83.7988826815766
2584,1562476.0,98.68421052628744
2585,1563136.0,90.90909090911096
2586,1563828.0,86.70520231213781
2587,1564448.0,96.77419354836864
2588,1565084.0,94.3396226415143
2589,1565832.0,80.21390374331044
2590,1566384.0,108.69565217393131
2591,1567076.0,86.70520231213781
2592,1567676.0,100.00000000001516
2593,1568324.0,92.59259259257284
2594,1568964.0,93.75000000001866
2595,1569692.0,82.417582417575
2596,1570248.0,107.91366906474043
2597,1570892.0,93.16770186335324
2598,1571540.0,92.59259259260533
2599,1572216.0,88.75739644971321
2600,1572896.0,88.2352941176388
2601,1573480.0,102.7397260273867
2602,1574116.0,94.3396226415143
2603,1574776.0,90.90909090907964
2604,1575432.0,91.46341463415344
2605,1576084.0,92.02453987729446
2606,1576736.0,92.02453987729446
2607,1577392.0,91.46341463415344
2608,1578052.0,90.90909090911096
2609,1578788.0,81.5217391304233
2610,1579360.0,104.89510489512524
2611,1580020.0,90.90909090907964
2612,1580676.0,91.46341463415344
2613,1581332.0,91.46341463412175
2614,1581968.0,94.3396226415143
2615,1582624.0,91.46341463415344
2616,1583284.0,90.90909090907964
2617,1583948.0,90.36144578313426
2618,1584600.0,92.02453987732655
2619,1585264.0,90.36144578313426
2620,1585928.0,90.36144578310332
2621,1586608.0,88.2352941176683
2622,1587292.0,87.719298245618
2623,1587980.0,87.20930232556849
2624,1588684.0,85.22727272727867
2625,1589360.0,88.75739644971321
2626,1590128.0,78.12499999999704
2627,1590776.0,92.59259259257284
2628,1591496.0,83.33333333333017
2629,1592080.0,102.7397260274267
2630,1592760.0,88.2352941176388
2631,1593484.0,82.87292817680328
2632,1594204.0,83.33333333333017
2633,1594880.0,88.75739644968337
2634,1595540.0,90.90909090911096
2635,1596136.0,100.6711409395967
2636,1596820.0,87.719298245618
2637,1597592.0,77.72020725386972
2638,1598168.0,104.16666666670383
2639,1598920.0,79.78723404253408
2640,1599492.0,104.89510489512524
2641,1600252.0,78.94736842105358
2642,1600808.0,107.91366906474043
2643,1601452.0,93.16770186335324
2644,1602100.0,92.59259259260533
2645,1602816.0,83.79888268154998
2646,1603452.0,94.3396226415143
2647,1604124.0,89.2857142857109
2648,1604668.0,110.29411764708537
2649,1605300.0,94.9367088607502
2650,1605920.0,96.77419354836864
2651,1606536.0,97.40259740259971
2652,1607152.0,97.40259740259971
2653,1607752.0,100.00000000001516
2654,1608376.0,96.15384615384251
2655,1609000.0,96.15384615384251
2656,1609608.0,98.68421052632435
2657,1610304.0,86.20689655170679
2658,1610904.0,100.00000000001516
2659,1611484.0,103.44827586208194
2660,1612060.0,104.16666666666272
2661,1612732.0,89.2857142857109
2662,1613336.0,99.33774834436397
2663,1613860.0,114.50381679391778
2664,1614556.0,86.20689655170679
2665,1615080.0,114.50381679391778
2666,1615768.0,87.20930232556849
2667,1616292.0,114.50381679391778
2668,1617004.0,84.2696629213496
2669,1617528.0,114.50381679386808
2670,1618152.0,96.15384615384251
2671,1618768.0,97.40259740259971
2672,1619388.0,96.77419354840413
2673,1620096.0,84.7457627118544
2674,1620640.0,110.29411764703927
2675,1621288.0,92.59259259260533
2676,1621924.0,94.3396226415143
2677,1622640.0,83.79888268154998
2678,1623252.0,98.0392156862981
2679,1623856.0,99.33774834436397
2680,1624500.0,93.16770186335324
2681,1625148.0,92.59259259260533
2682,1625816.0,89.82035928142098
2683,1626484.0,89.82035928145156
2684,1627132.0,92.59259259257284
2685,1627788.0,91.46341463415344
2686,1628456.0,89.82035928145156
2687,1629164.0,84.7457627118544
2688,1629812.0,92.59259259260533
2689,1630492.0,88.2352941176388
2690,1631156.0,90.36144578313426
2691,1631932.0,77.31958762885927
2692,1632608.0,88.75739644971321
2693,1633216.0,98.68421052632435
2694,1633888.0,89.2857142857109
2695,1634656.0,78.12499999999704
2696,1635236.0,103.44827586204138
2697,1635992.0,79.36507936509426
2698,1636592.0,99.99999999997726
2699,1637276.0,87.719298245618
2700,1637948.0,89.2857142857109
2701,1638692.0,80.64516129033184
2702,1639360.0,89.82035928145156
2703,1639960.0,99.99999999997726
2704,1640604.0,93.16770186335324
2705,1641332.0,82.417582417575
2706,1641880.0,109.48905109489014
2707,1642516.0,94.3396226415143
2708,1643152.0,94.3396226415143
2709,1643800.0,92.59259259260533
2710,1644444.0,93.16770186335324
2711,1645172.0,82.417582417575
2712,1645772.0,100.00000000001516
2713,1646356.0,102.7397260273867
2714,1646992.0,94.3396226415143
2715,1647636.0,93.16770186335324
2716,1648240.0,99.33774834436397
2717,1648940.0,85.71428571428015
2718,1649524.0,102.7397260274267
2719,1650232.0,84.7457627118544
2720,1650780.0,109.48905109489014
2721,1651404.0,96.15384615384251
2722,1652036.0,94.9367088607502
2723,1652648.0,98.0392156862981
2724,1653272.0,96.15384615384251
2725,1653908.0,94.3396226415143
2726,1654544.0,94.33962264148056
2727,1655168.0,96.15384615387755
2728,1655792.0,96.15384615384251
2729,1656416.0,96.15384615384251
2730,1657148.0,81.96721311475736
2731,1657680.0,112.78195488718565
2732,1658300.0,96.77419354840413
2733,1659004.0,85.22727272727867
2734,1659532.0,113.63636363635933
2735,1660180.0,92.59259259257284
2736,1660844.0,90.36144578313426
2737,1661460.0,97.40259740259971
2738,1662072.0,98.0392156862981
2739,1662768.0,86.20689655170679
2740,1663344.0,104.16666666666272
2741,1663996.0,92.02453987729446
2742,1664700.0,85.22727272727867
2743,1665236.0,111.94029850745054
2744,1665864.0,95.54140127389614
2745,1666560.0,86.20689655173496
2746,1667076.0,116.27906976742464
2747,1667692.0,97.40259740259971
2748,1668304.0,98.03921568626168
2749,1668920.0,97.40259740259971
2750,1669536.0,97.40259740259971
2751,1670168.0,94.93670886078436
2752,1670872.0,85.22727272725115
2753,1671488.0,97.40259740259971
2754,1672012.0,114.50381679391778
2755,1672660.0,92.59259259257284
2756,1673336.0,88.75739644971321
2757,1673904.0,105.63380281690445
2758,1674576.0,89.2857142857109
2759,1675140.0,106.3829787233895
2760,1675848.0,84.74576271188161
2761,1676368.0,115.38461538461942
2762,1676984.0,97.40259740259971
2763,1677604.0,96.77419354836864
2764,1678224.0,96.77419354840413
2765,1678844.0,96.77419354836864
2766,1679452.0,98.68421052632435
2767,1680064.0,98.03921568626168
2768,1680684.0,96.77419354840413
2769,1681368.0,87.719298245618
2770,1682000.0,94.9367088607502
2771,1682664.0,90.36144578313426
2772,1683192.0,113.63636363635933
2773,1683820.0,95.54140127389614
2774,1684456.0,94.3396226415143
2775,1685088.0,94.9367088607502
2776,1685724.0,94.3396226415143
2777,1686336.0,98.03921568626168
2778,1687064.0,82.417582417575
2779,1687616.0,108.69565217393131
2780,1688248.0,94.9367088607502
2781,1688876.0,95.54140127389614
2782,1689736.0,69.76744186045478
2783,1690368.0,94.93670886078436
2784,1691056.0,87.20930232556849
2785,1691764.0,84.74576271188161
2786,1692436.0,89.2857142857109
2787,1693184.0,80.21390374331044
2788,1693736.0,108.69565217388654
2789,1694472.0,81.52173913044848
2790,1695012.0,111.1111111111186
2791,1695648.0,94.3396226415143
2792,1696296.0,92.59259259257284
2793,1697012.0,83.7988826815766
2794,1697636.0,96.15384615384251
2795,1698172.0,111.94029850745054
2796,1698820.0,92.59259259260533
2797,1699416.0,100.6711409395967
2798,1700024.0,98.68421052632435
2799,1700736.0,84.26966292132269
2800,1701264.0,113.63636363640826
2801,1701864.0,99.99999999997726
2802,1702480.0,97.40259740259971
2803,1703096.0,97.40259740259971
2804,1703712.0,97.40259740259971
2805,1704324.0,98.03921568626168
2806,1704928.0,99.33774834436397
2807,1705544.0,97.40259740259971
2808,1706148.0,99.33774834440138
2809,1706752.0,99.33774834436397
2810,1707364.0,98.03921568626168
2811,1707960.0,100.6711409395967
2812,1708560.0,100.00000000001516
2813,1709156.0,100.6711409395967
2814,1709852.0,86.20689655170679
2815,1710456.0,99.33774834440138
2816,1711048.0,101.35135135133453
2817,1711544.0,120.96774193546081
2818,1712144.0,100.00000000001516
2819,1712764.0,96.77419354840413
2820,1713344.0,103.44827586204138
2821,1714036.0,86.70520231213781
2822,1714548.0,117.1875000000129
2823,1715236.0,87.20930232556849
2824,1715752.0,116.27906976747589
2825,1716352.0,99.99999999997726
2826,1717012.0,90.90909090911096
2827,1717560.0,109.48905109489014
2828,1718168.0,98.68421052632435
2829,1718768.0,99.99999999997726
2830,1719372.0,99.33774834436397
2831,1720064.0,86.70520231213781
2832,1720588.0,114.50381679391778
2833,1721184.0,100.6711409395967
2834,1721796.0,98.03921568626168
2835,1722428.0,94.9367088607502
2836,1723012.0,102.7397260274267
2837,1723672.0,90.90909090907964
2838,1724228.0,107.91366906474043
2839,1724832.0,99.33774834436397
2840,1725444.0,98.0392156862981
2841,1726052.0,98.68421052632435
2842,1726668.0,97.40259740259971
2843,1727332.0,90.36144578310332
2844,1727888.0,107.91366906478457
2845,1728588.0,85.71428571428015
2846,1729100.0,117.1875000000129
2847,1729808.0,84.7457627118544
2848,1730316.0,118.11023622046356
2849,1730988.0,89.2857142857109
2850,1731728.0,81.08108108108009
2851,1732260.0,112.78195488723385
2852,1732888.0,95.54140127389614
2853,1733520.0,94.9367088607502
2854,1734140.0,96.77419354836864
2855,1734752.0,98.0392156862981
2856,1735452.0,85.71428571428015
2857,1735968.0,116.27906976742464
2858,1736580.0,98.0392156862981
2859,1737192.0,98.03921568626168
2860,1737804.0,98.03921568626168
2861,1738412.0,98.68421052632435
2862,1739028.0,97.40259740259971
2863,1739624.0,100.6711409395967
2864,1740240.0,97.40259740259971
2865,1740932.0,86.70520231213781
2866,1741444.0,117.1875000000129
2867,1742052.0,98.68421052632435
2868,1742768.0,83.79888268154998
2869,1743276.0,118.11023622046356
2870,1743908.0,94.93670886078436
2871,1744488.0,103.44827586204138
2872,1745120.0,94.93670886078436
2873,1745700.0,103.44827586204138
2874,1746300.0,100.00000000001516
2875,1746996.0,86.20689655170679
2876,1747412.0,144.23076923079003
2877,1748104.0,86.70520231213781
2878,1748724.0,96.77419354840413
2879,1749300.0,104.16666666666272
2880,1749916.0,97.40259740259971
2881,1750516.0,99.99999999997726
2882,1751112.0,100.6711409395967
2883,1751788.0,88.75739644971321
2884,1752304.0,116.27906976742464
2885,1752896.0,101.35135135137347
2886,1753512.0,97.40259740259971
2887,1754132.0,96.77419354836864
2888,1754760.0,95.54140127389614
2889,1755436.0,88.75739644971321
2890,1756000.0,106.3829787233895
2891,1756708.0,84.7457627118544
2892,1757240.0,112.78195488723385
2893,1757976.0,81.5217391304233
2894,1758504.0,113.63636363640826
2895,1759156.0,92.02453987729446
2896,1759800.0,93.16770186335324
2897,1760520.0,83.33333333333017
2898,1761052.0,112.78195488723385
2899,1761688.0,94.33962264148056
2900,1762328.0,93.75000000001866
2901,1763164.0,71.77033492822858
2902,1763836.0,89.2857142857109
2903,1764472.0,94.3396226415143
2904,1765232.0,78.94736842105358
2905,1765808.0,104.16666666666272
2906,1766460.0,92.02453987729446
2907,1767124.0,90.36144578313426
2908,1767736.0,98.03921568626168
2909,1768368.0,94.93670886078436
2910,1769052.0,87.719298245618
2911,1769608.0,107.91366906474043
2912,1770224.0,97.40259740259971
2913,1770856.0,94.9367088607502
2914,1771448.0,101.35135135133453
2915,1772052.0,99.33774834440138
2916,1772712.0,90.90909090907964
2917,1773272.0,107.14285714286758
2918,1773868.0,100.6711409395967
2919,1774472.0,99.33774834436397
2920,1775164.0,86.70520231213781
2921,1775688.0,114.50381679386808
2922,1776292.0,99.33774834440138
2923,1776880.0,102.04081632649715
2924,1777476.0,100.6711409395967
2925,1778076.0,100.00000000001516
2926,1778688.0,98.03921568626168
2927,1779284.0,100.6711409395967
2928,1779904.0,96.77419354840413
2929,1780464.0,107.14285714286758
2930,1781100.0,94.3396226415143
2931,1781788.0,87.20930232556849
2932,1782292.0,119.04761904764139
2933,1782900.0,98.68421052628744
2934,1783508.0,98.68421052632435
2935,1784104.0,100.6711409395967
2936,1784708.0,99.33774834436397
2937,1785312.0,99.33774834440138
2938,1785984.0,89.2857142857109
2939,1786564.0,103.44827586204138
2940,1787268.0,85.22727272727867
2941,1787808.0,111.1111111111186
2942,1788428.0,96.77419354836864
2943,1789044.0,97.40259740259971
2944,1789676.0,94.93670886078436
2945,1790296.0,96.77419354836864
2946,1790996.0,85.71428571428015
2947,1791536.0,111.1111111111186
2948,1792232.0,86.20689655173496
2949,1792752.0,115.38461538461942
2950,1793360.0,98.68421052632435
2951,1794000.0,93.74999999998535
2952,1794732.0,81.96721311475736
2953,1795264.0,112.78195488723385
2954,1795892.0,95.54140127386155
2955,1796540.0,92.59259259260533
2956,1797300.0,78.94736842105358
2957,1797836.0,111.94029850745054
2958,1798572.0,81.52173913044848
2959,1799132.0,107.14285714282408
2960,1799736.0,99.33774834436397
2961,1800456.0,83.33333333335649
2962,1801004.0,109.48905109489014
2963,1801652.0,92.59259259257284
2964,1802276.0,96.15384615384251
2965,1802916.0,93.75000000001866
2966,1803636.0,83.33333333333017
2967,1804256.0,96.77419354836864
2968,1804784.0,113.63636363635933
2969,1805404.0,96.77419354840413
2970,1806120.0,83.7988826815766
2971,1806656.0,111.94029850745054
2972,1807280.0,96.15384615384251
2973,1807996.0,83.79888268154998
2974,1808524.0,113.63636363640826
2975,1809140.0,97.40259740256376
2976,1809764.0,96.15384615387755
2977,1810392.0,95.54140127386155
2978,1811108.0,83.7988826815766
2979,1811648.0,111.1111111111186
2980,1812272.0,96.15384615384251
2981,1812888.0,97.40259740259971
2982,1813608.0,83.33333333333017
2983,1814228.0,96.77419354836864
2984,1814784.0,107.91366906474043
2985,1815464.0,88.2352941176683
2986,1816008.0,110.29411764703927
2987,1816640.0,94.9367088607502
2988,1817180.0,111.1111111111186
2989,1817972.0,75.75757575758377
2990,1818508.0,111.94029850745054
2991,1819188.0,88.2352941176388
2992,1819844.0,91.46341463415344
2993,1820364.0,115.38461538461942
2994,1820984.0,96.77419354840413
2995,1821584.0,99.99999999997726
2996,1822208.0,96.15384615384251
2997,1822864.0,91.46341463415344
2998,1823552.0,87.2093023255973
2999,1824092.0,111.1111111110718
3000,1824708.0,97.40259740259971
3001,1825432.0,82.87292817680328
3002,1825964.0,112.78195488723385
3003,1826636.0,89.2857142857109
3004,1827208.0,104.89510489508355
3005,1827824.0,97.40259740259971
3006,1828456.0,94.93670886078436
3007,1829056.0,99.99999999997726
3008,1829680.0,96.15384615384251
3009,1830292.0,98.0392156862981
3010,1830988.0,86.20689655170679
3011,1831556.0,105.63380281690445
3012,1832192.0,94.3396226415143
3013,1832712.0,115.38461538461942
3014,1833376.0,90.36144578313426
3015,1833936.0,107.14285714286758
3016,1834548.0,98.03921568626168
3017,1835164.0,97.40259740259971
3018,1835788.0,96.15384615384251
3019,1836412.0,96.15384615384251
3020,1837044.0,94.9367088607502
3021,1837652.0,98.68421052632435
3022,1838268.0,97.40259740259971
3023,1838996.0,82.417582417575
3024,1839544.0,109.48905109489014
3025,1840204.0,90.90909090911096
3026,1840900.0,86.20689655170679
3027,1841444.0,110.29411764708537
3028,1842104.0,90.90909090907964
3029,1842724.0,96.77419354840413
3030,1843344.0,96.77419354836864
3031,1844020.0,88.75739644971321
3032,1844580.0,107.14285714286758
3033,1845292.0,84.2696629213496
3034,1845808.0,116.27906976742464
3035,1846428.0,96.77419354836864
3036,1847044.0,97.40259740259971
3037,1847676.0,94.93670886078436
3038,1848284.0,98.68421052628744
3039,1848944.0,90.90909090911096
3040,1849500.0,107.91366906474043
3041,1850120.0,96.77419354840413
3042,1850748.0,95.54140127386155
3043,1851364.0,97.40259740259971
3044,1852040.0,88.75739644971321
3045,1852608.0,105.63380281690445
3046,1853324.0,83.79888268154998
3047,1853840.0,116.27906976747589
3048,1854512.0,89.2857142857109
3049,1855068.0,107.91366906474043
3050,1855684.0,97.40259740259971
3051,1856348.0,90.36144578313426
3052,1856912.0,106.3829787233895
3053,1857580.0,89.82035928145156
3054,1858132.0,108.69565217388654
3055,1858752.0,96.77419354840413
3056,1859364.0,98.03921568626168
3057,1860024.0,90.90909090911096
3058,1860632.0,98.68421052628744
3059,1861184.0,108.69565217393131
3060,1861892.0,84.7457627118544
3061,1862420.0,113.63636363635933
3062,1863108.0,87.2093023255973
3063,1863628.0,115.38461538461942
3064,1864336.0,84.7457627118544
3065,1864856.0,115.38461538461942
3066,1865524.0,89.82035928145156
3067,1866084.0,107.14285714282408
3068,1866696.0,98.0392156862981
3069,1867316.0,96.77419354836864
3070,1867936.0,96.77419354840413
3071,1868604.0,89.82035928142098
3072,1869172.0,105.63380281690445
3073,1869888.0,83.7988826815766
3074,1870416.0,113.63636363635933
3075,1871072.0,91.46341463415344
3076,1871668.0,100.6711409395967
3077,1872304.0,94.33962264148056
3078,1872928.0,96.15384615384251
3079,1873552.0,96.15384615387755
3080,1874176.0,96.15384615384251
3081,1874796.0,96.77419354836864
3082,1875428.0,94.9367088607502
3083,1876072.0,93.16770186338614
3084,1876696.0,96.15384615384251
3085,1877420.0,82.87292817677725
3086,1878056.0,94.3396226415143
3087,1878704.0,92.59259259260533
3088,1879252.0,109.48905109489014
3089,1879888.0,94.3396226415143
3090,1880512.0,96.15384615384251
3091,1881248.0,81.5217391304233
3092,1881780.0,112.78195488723385
3093,1882464.0,87.719298245618
3094,1883008.0,110.29411764703927
3095,1883664.0,91.46341463415344
3096,1884304.0,93.74999999998535
3097,1884948.0,93.16770186335324
3098,1885572.0,96.15384615387755
3099,1886204.0,94.9367088607502
3100,1886932.0,82.417582417575
3101,1887564.0,94.9367088607502
3102,1888108.0,110.29411764708537
3103,1888728.0,96.77419354836864
3104,1889376.0,92.59259259260533
3105,1890024.0,92.59259259260533
3106,1890684.0,90.90909090907964
3107,1891336.0,92.02453987729446
3108,1891932.0,100.6711409395967
3109,1892632.0,85.71428571428015
3110,1893272.0,93.75000000001866
3111,1893812.0,111.1111111111186
3112,1894648.0,71.77033492822858
3113,1895060.0,145.63106796115284
3114,1895932.0,68.80733944953569
3115,1896344.0,145.63106796115284
3116,1897124.0,76.92307692307962
3117,1897580.0,131.57894736844887
3118,1898400.0,73.17073170730247
3119,1898836.0,137.61467889910725
3120,1899680.0,71.09004739336063
3121,1900140.0,130.43478260868534
3122,1900960.0,73.17073170732276
3123,1901396.0,137.61467889910725
3124,1902264.0,69.12442396313857
3125,1902724.0,130.43478260868534
3126,1903572.0,70.75471698113572
3127,1904036.0,129.31034482753907
3128,1904844.0,74.25742574257492
3129,1905360.0,116.27906976747589
3130,1906152.0,75.75757575756201
3131,1906644.0,121.95121951220459
3132,1907464.0,73.17073170732276
3133,1907976.0,117.18749999996086
3134,1908800.0,72.81553398059651
3135,1909240.0,136.36363636361946
3136,1910104.0,69.44444444444181
3137,1910572.0,128.20512820517007
3138,1911400.0,72.46376811592435
3139,1911860.0,130.4347826087498
3140,1912796.0,64.10256410255388
3141,1913208.0,145.63106796115284
3142,1913996.0,76.14213197969438
3143,1914460.0,129.31034482760242
3144,1915252.0,75.75757575758377
3145,1915732.0,124.99999999999527
3146,1916564.0,72.11538461537532
3147,1917008.0,135.13513513514732
3148,1917848.0,71.4285714285784
3149,1918340.0,121.95121951220459
3150,1919092.0,79.78723404253408
3151,1919560.0,128.20512820517007
3152,1920368.0,74.25742574257492
3153,1920812.0,135.13513513514732
3154,1921592.0,76.9230769230572
3155,1922100.0,118.11023622051643
3156,1922884.0,76.53061224488766
3157,1923360.0,126.05042016809757
3158,1924152.0,75.75757575756201
3159,1924624.0,127.118644067802
3160,1925404.0,76.92307692307962
3161,1925848.0,135.13513513514732
3162,1926636.0,76.14213197969438
3163,1927132.0,120.96774193546081
3164,1927876.0,80.64516129033184
3165,1928448.0,104.89510489508355
3166,1929100.0,92.02453987732655
3167,1929696.0,100.6711409395967
3168,1930356.0,90.90909090907964
3169,1930956.0,100.00000000001516
3170,1931508.0,108.69565217388654
3171,1932132.0,96.15384615384251
3172,1932748.0,97.40259740259971
3173,1933372.0,96.15384615384251
3174,1934092.0,83.33333333333017
3175,1934676.0,102.7397260274267
3176,1935336.0,90.90909090907964
3177,1935872.0,111.94029850745054
3178,1936496.0,96.15384615384251
3179,1937100.0,99.33774834440138
3180,1937716.0,97.40259740259971
3181,1938320.0,99.33774834436397
3182,1938928.0,98.68421052628744
3183,1939596.0,89.82035928145156
3184,1940156.0,107.14285714286758
3185,1940820.0,90.36144578313426
3186,1941380.0,107.14285714282408
3187,1942080.0,85.71428571430799
3188,1942592.0,117.18749999996086
3189,1943212.0,96.77419354840413
3190,1943816.0,99.33774834436397
3191,1944452.0,94.3396226415143
3192,1945064.0,98.03921568626168
3193,1945692.0,95.54140127389614
3194,1946308.0,97.40259740259971
3195,1946932.0,96.15384615384251
3196,1947556.0,96.15384615384251
3197,1948212.0,91.46341463415344
3198,1948828.0,97.40259740259971
3199,1949448.0,96.77419354836864
3200,1950080.0,94.93670886078436
3201,1950772.0,86.70520231213781
3202,1951372.0,99.99999999997726
3203,1951988.0,97.40259740259971
3204,1952628.0,93.75000000001866
3205,1953256.0,95.54140127386155
3206,1953864.0,98.68421052632435
3207,1954504.0,93.75000000001866
3208,1955120.0,97.40259740259971
3209,1955740.0,96.77419354836864
3210,1956372.0,94.9367088607502
3211,1957040.0,89.82035928145156
3212,1957620.0,103.44827586208194
3213,1958248.0,95.54140127386155
3214,1958868.0,96.77419354840413
3215,1959488.0,96.77419354836864
3216,1960120.0,94.93670886078436
3217,1960744.0,96.15384615384251
3218,1961472.0,82.417582417575
3219,1962104.0,94.9367088607502
3220,1962644.0,111.1111111111186
3221,1963272.0,95.54140127389614
3222,1963888.0,97.40259740259971
3223,1964612.0,82.87292817677725
3224,1965244.0,94.93670886078436
3225,1965776.0,112.78195488718565
3226,1966392.0,97.40259740259971
3227,1967016.0,96.15384615384251
3228,1967640.0,96.15384615384251
3229,1968268.0,95.54140127389614
3230,1968908.0,93.75000000001866
3231,1969528.0,96.77419354836864
3232,1970148.0,96.77419354840413
3233,1970768.0,96.77419354836864
3234,1971420.0,92.02453987729446
3235,1972032.0,98.0392156862981
3236,1972736.0,85.22727272725115
3237,1973268.0,112.78195488723385
3238,1973980.0,84.2696629213496
3239,1974504.0,114.50381679391778
3240,1975196.0,86.70520231213781
3241,1975720.0,114.50381679386808
3242,1976344.0,96.15384615384251
3243,1976964.0,96.77419354840413
3244,1977568.0,99.33774834436397
3245,1978276.0,84.7457627118544
3246,1978788.0,117.1875000000129
3247,1979424.0,94.3396226415143
3248,1980024.0,100.00000000001516
3249,1980640.0,97.40259740256376
3250,1981312.0,89.28571428574111
3251,1981880.0,105.63380281686217
3252,1982492.0,98.0392156862981
3253,1983108.0,97.40259740259971
3254,1983720.0,98.03921568626168
3255,1984340.0,96.77419354840413
3256,1984948.0,98.68421052628744
3257,1985560.0,98.0392156862981
3258,1986184.0,96.15384615384251
3259,1986880.0,86.20689655170679
3260,1987400.0,115.38461538461942
3261,1988104.0,85.22727272727867
3262,1988624.0,115.38461538461942
3263,1989232.0,98.68421052632435
3264,1989844.0,98.03921568626168
3265,1990460.0,97.40259740259971
3266,1991064.0,99.33774834436397
3267,1991760.0,86.20689655173496
3268,1992276.0,116.27906976742464
3269,1992944.0,89.82035928145156
3270,1993500.0,107.91366906474043
3271,1994124.0,96.15384615384251
3272,1994788.0,90.36144578313426
3273,1995436.0,92.59259259260533
3274,1995952.0,116.27906976742464
3275,1996576.0,96.15384615384251
3276,1997180.0,99.33774834436397
3277,1997848.0,89.82035928145156
3278,1998416.0,105.63380281690445
3279,1999068.0,92.02453987729446
3280,1999628.0,107.14285714286758
3281,2000232.0,99.33774834436397
3282,2000840.0,98.68421052632435
3283,2001448.0,98.68421052628744
3284,2002100.0,92.02453987732655
3285,2002640.0,111.1111111110718
3286,2003236.0,100.6711409395967
3287,2003844.0,98.68421052632435
3288,2004524.0,88.2352941176683
3289,2005024.0,120.0
3290,2005676.0,92.02453987729446
3291,2006248.0,104.89510489508355
3292,2006824.0,104.16666666666272
3293,2007460.0,94.3396226415143
3294,2008060.0,100.00000000001516
3295,2008668.0,98.68421052632435
3296,2009268.0,99.99999999997726
3297,2009888.0,96.77419354840413
3298,2010200.0,192.30769230761496
3299,2010508.0,194.80519480519942
3300,2011112.0,99.33774834436397
3301,2011732.0,96.77419354840413
3302,2012340.0,98.68421052632435
3303,2012952.0,98.03921568626168
3304,2013660.0,84.7457627118544
3305,2014188.0,113.63636363635933
3306,2014504.0,189.87341772163703
3307,2014828.0,185.18518518514568
3308,2015388.0,107.14285714286758
3309,2015996.0,98.68421052628744
3310,2016604.0,98.68421052632435
3311,2017224.0,96.77419354840413
3312,2017828.0,99.33774834436397
3313,2018428.0,99.99999999997726
3314,2019056.0,95.54140127389614
3315,2019700.0,93.16770186335324
3316,2020356.0,91.46341463415344
3317,2020980.0,96.15384615384251
3318,2021504.0,114.50381679391778
3319,2022172.0,89.82035928142098
3320,2022728.0,107.91366906474043
3321,2023444.0,83.7988826815766
3322,2024020.0,104.16666666666272
3323,2024592.0,104.89510489508355
3324,2025212.0,96.77419354840413
3325,2025928.0,83.79888268154998
3326,2026460.0,112.78195488723385
3327,2027088.0,95.54140127389614
3328,2027792.0,85.22727272727867
3329,2028324.0,112.78195488718565
3330,2028944.0,96.77419354840413
3331,2029580.0,94.3396226415143
3332,2030208.0,95.54140127386155
3333,2030904.0,86.20689655173496
3334,2031432.0,113.63636363635933
3335,2032072.0,93.75000000001866
3336,2032728.0,91.46341463412175
3337,2033288.0,107.14285714286758
3338,2033928.0,93.74999999998535
3339,2034644.0,83.7988826815766
3340,2035268.0,96.15384615384251
3341,2035900.0,94.9367088607502
3342,2036432.0,112.78195488723385
3343,2037108.0,88.75739644971321
3344,2037672.0,106.3829787233895
3345,2038292.0,96.77419354840413
3346,2039000.0,84.7457627118544
3347,2039516.0,116.27906976742464
3348,2040212.0,86.20689655173496
3349,2040824.0,98.03921568626168
3350,2041372.0,109.48905109489014
3351,2041972.0,100.00000000001516
3352,2042584.0,98.03921568626168
3353,2043196.0,98.0392156862981
3354,2043812.0,97.40259740259971
3355,2044428.0,97.40259740256376
3356,2045124.0,86.20689655173496
3357,2045740.0,97.40259740259971
3358,2046260.0,115.38461538461942
3359,2046868.0,98.68421052632435
3360,2047492.0,96.15384615384251
3361,2048100.0,98.68421052632435
3362,2048487.9999999998,154.63917525776387
3363,2048792.0,197.3684210525749
3364,2049320.0000000002,113.63636363631039
3365,2049928.0,98.68421052636126
3366,2050603.9999999998,88.75739644971321
3367,2051224.0000000002,96.77419354833316
3368,2051732.0,118.11023622051643
3369,2052391.9999999998,90.90909090911096
3370,2052960.0,105.63380281686217
3371,2053652.0,86.70520231213781
3372,2054168.0000000002,116.27906976742464
3373,2054780.0000000002,98.03921568626168
3374,2055472.0000000002,86.70520231213781
3375,2055987.9999999998,116.27906976752712
3376,2056696.0,84.7457627118544
3377,2057216.0,115.38461538461942
3378,2057828.0,98.03921568626168
3379,2058440.0,98.03921568626168
3380,2059112.0,89.2857142857109
3381,2059676.0,106.38297872343239
3382,2060288.0,98.03921568626168
3383,2060928.0,93.75000000001866
3384,2061512.0000000002,102.7397260273467
3385,2062120.0,98.68421052636126
3386,2062764.0000000002,93.16770186332036
3387,2063360.0000000002,100.6711409395967
3388,2063987.9999999998,95.54140127393073
3389,2064608.0000000002,96.77419354833316
3390,2065224.0000000002,97.40259740259971
3391,2065824.0,100.00000000001516
3392,2066444.0,96.77419354840413
3393,2067052.0000000002,98.68421052628744
3394,2067656.0,99.33774834440138
3395,2068264.0000000002,98.68421052628744
3396,2068888.0,96.15384615387755
3397,2069520.0,94.9367088607502
3398,2070204.0000000002,87.71929824558885
3399,2070772.0,105.63380281694674
3400,2071492.0000000002,83.33333333330386
3401,2072027.9999999998,111.9402985075455
3402,2072656.0,95.54140127386155
3403,2073292.0,94.3396226415143
3404,2073888.0,100.6711409395967
3405,2074596.0,84.7457627118544
3406,2075132.0,111.94029850745054
3407,2075760.0000000002,95.54140127386155
3408,2076364.0,99.33774834440138
3409,2076984.0,96.77419354840413
3410,2077600.0,97.40259740259971
3411,2078235.9999999998,94.3396226415143
3412,2078864.0,95.54140127386155
3413,2079496.0,94.9367088607502
3414,2080123.9999999998,95.54140127393073
3415,2080752.0,95.54140127386155
3416,2081391.9999999998,93.75000000001866
3417,2082000.0,98.68421052628744
3418,2082639.9999999998,93.75000000001866
3419,2083264.0000000002,96.15384615380748
3420,2083908.0,93.16770186338614
3421,2084496.0,102.04081632649715
3422,2085143.9999999998,92.59259259263781
3423,2085744.0000000002,99.99999999993936
3424,2086380.0,94.3396226415143
3425,2086996.0,97.40259740259971
3426,2087608.0000000002,98.03921568626168
3427,2088312.0,85.2272727273062
3428,2088831.9999999998,115.38461538461942
3429,2089444.0,98.03921568626168
3430,2090072.0,95.54140127386155
3431,2090692.0,96.77419354840413
3432,2091295.9999999998,99.33774834440138
3433,2091916.0000000002,96.77419354833316
3434,2092547.9999999998,94.93670886081851
3435,2093179.9999999998,94.9367088607502
3436,2093828.0,92.59259259257284
3437,2094467.9999999998,93.75000000001866
3438,2095080.0,98.03921568626168
3439,2095724.0000000002,93.16770186332036
3440,2096360.0000000002,94.3396226415143
3441,2097004.0,93.16770186338614
3442,2097636.0,94.9367088607502
3443,2098248.0,98.03921568626168
3444,2098924.0,88.75739644971321
3445,2099496.0,104.89510489508355
3446,2100200.0,85.2272727273062
3447,2100728.0,113.63636363631039
3448,2101340.0,98.03921568626168
3449,2101956.0,97.40259740259971
3450,2102580.0,96.15384615387755
3451,2103192.0,98.03921568626168
3452,2103860.0,89.82035928142098
3453,2104476.0,97.40259740259971
3454,2105092.0,97.40259740259971
3455,2105656.0,106.38297872343239
3456,2106364.0,84.7457627118544
3457,2106908.0,110.29411764708537
3458,2107532.0,96.15384615380748
3459,2108108.0,104.16666666666272
3460,2108760.0,92.02453987729446
3461,2109396.0,94.3396226415143
3462,2110012.0,97.40259740259971
3463,2110340.0,182.92682926830688
3464,2110652.0,192.3076923077551
3465,2111256.0,99.33774834440138
3466,2111876.0,96.77419354833316
3467,2112540.0,90.36144578316521
3468,2113160.0,96.77419354840413
3469,2113736.0,104.16666666666272
3470,2114356.0,96.77419354833316
3471,2114976.0,96.77419354840413
3472,2115600.0,96.15384615387755
3473,2116316.0,83.7988826815766
3474,2116860.0,110.29411764699317
3475,2117484.0,96.15384615387755
3476,2118204.0,83.33333333330386
3477,2118744.0,111.1111111111186
3478,2119348.0,99.33774834440138
3479,2120028.0,88.2352941176683
3480,2120460.0,138.88888888881053
3481,2121248.0,76.14213197969438
3482,2121848.0,100.00000000001516
3483,2122600.0,79.78723404255821
3484,2123140.0,111.1111111111186
3485,2123648.0,118.1102362204107
3486,2124344.0,86.20689655173496
3487,2125012.0,89.82035928142098
3488,2125640.0,95.54140127393073
3489,2126272.0,94.9367088607502
3490,2126908.0,94.3396226415143
3491,2127540.0,94.9367088607502
3492,2128212.0,89.2857142857109
3493,2128872.0,90.90909090911096
3494,2129416.0,110.29411764699317
3495,2130044.0,95.54140127393073
3496,2130748.0,85.22727272725115
3497,2131336.0,102.04081632657606
3498,2131904.0,105.63380281686217
3499,2132528.0,96.15384615387755
3500,2133160.0,94.9367088607502
3501,2133796.0,94.3396226415143
3502,2134424.0,95.54140127386155
3503,2135056.0,94.9367088607502
3504,2135672.0,97.40259740259971
3505,2136304.0,94.9367088607502
3506,2136968.0,90.36144578316521
3507,2137404.0,137.61467889903548
3508,2138176.0,77.7202072538926
3509,2138780.0,99.33774834432658
3510,2139400.0,96.77419354840413
3511,2140112.0,84.2696629213496
3512,2140632.0,115.38461538461942
3513,2141336.0,85.2272727273062
3514,2141856.0,115.38461538451851
3515,2142476.0,96.77419354840413
3516,2143144.0,89.82035928148213
3517,2143716.0,104.89510489508355
3518,2144332.0,97.40259740259971
3519,2145036.0,85.22727272725115
3520,2145616.0,103.44827586208194
3521,2146192.0,104.16666666666272
3522,2146820.0,95.54140127386155
3523,2147432.0,98.03921568633454
3524,2148056.0,96.15384615380748
3525,2148680.0,96.15384615387755
3526,2149360.0,88.2352941176093
3527,2149892.0,112.78195488728205
3528,2150508.0,97.40259740259971
3529,2151180.0,89.2857142857109
3530,2151748.0,105.63380281686217
3531,2152344.0,100.6711409395967
3532,2153052.0,84.7457627118544
3533,2153568.0,116.27906976742464
3534,2154180.0,98.03921568633454
3535,2154792.0,98.03921568626168
3536,2155404.0,98.03921568626168
3537,2156020.0,97.40259740259971
3538,2156628.0,98.68421052628744
3539,2157244.0,97.40259740259971
3540,2157880.0,94.3396226415143
3541,2158492.0,98.03921568626168
3542,2159172.0,88.2352941176683
3543,2159736.0,106.38297872343239
3544,2160360.0,96.15384615380748
3545,2160988.0,95.54140127393073
3546,2161600.0,98.03921568626168
3547,2162324.0,82.87292817677725
3548,2162912.0,102.04081632657606
3549,2163484.0,104.89510489508355
3550,2164104.0,96.77419354840413
3551,2164816.0,84.2696629213496
3552,2165348.0,112.78195488718565
3553,2165968.0,96.77419354840413
3554,2166640.0,89.2857142857109
3555,2167196.0,107.91366906474043
3556,2167812.0,97.40259740259971
3557,2168424.0,98.03921568626168
3558,2169076.0,92.02453987729446
3559,2169640.0,106.38297872343239
3560,2170336.0,86.20689655173496
3561,2170908.0,104.89510489508355
3562,2171484.0,104.16666666666272
3563,2172120.0,94.3396226415143
3564,2172672.0,108.69565217388654
3565,2173280.0,98.68421052628744
3566,2173884.0,99.33774834440138
3567,2174588.0,85.22727272725115
3568,2175096.0,118.11023622051643
3569,2175700.0,99.33774834440138
3570,2176304.0,99.33774834432658
3571,2176968.0,90.36144578316521
3572,2177528.0,107.14285714286758
3573,2178120.0,101.35135135133453
3574,2178748.0,95.54140127386155
3575,2179324.0,104.16666666666272
3576,2179928.0,99.33774834440138
3577,2180548.0,96.77419354840413
3578,2181192.0,93.16770186332036
3579,2181752.0,107.14285714286758
3580,2182344.0,101.35135135133453
3581,2183004.0,90.90909090911096
3582,2183548.0,110.29411764708537
3583,2184204.0,91.46341463409004
3584,2184740.0,111.9402985075455
3585,2185336.0,100.6711409395967
3586,2186024.0,87.20930232556849
3587,2186540.0,116.27906976742464
3588,2187184.0,93.16770186332036
3589,2187772.0,102.04081632657606
3590,2188336.0,106.38297872343239
3591,2188916.0,103.44827586200084
3592,2189556.0,93.75000000001866
3593,2190200.0,93.16770186338614
3594,2190704.0,119.04761904753397
3595,2191308.0,99.33774834440138
3596,2191996.0,87.20930232556849
3597,2192588.0,101.35135135133453
3598,2193120.0,112.78195488728205
3599,2193696.0,104.16666666666272
3600,2194396.0,85.7142857142523
3601,2194992.0,100.6711409395967
3602,2195520.0,113.63636363640826
3603,2196108.0,102.04081632649715
3604,2196768.0,90.90909090911096
3605,2197364.0,100.6711409395967
3606,2198008.0,93.16770186338614
3607,2198520.0,117.18749999996086
3608,2199228.0,84.7457627118544
3609,2199828.0,100.00000000001516
3610,2200356.0,113.63636363631039
3611,2200772.0,144.23076923086887
3612,2201560.0,76.14213197969438
3613,2202060.0,120.0
3614,2202776.0,83.7988826815766
3615,2203260.0,123.96694214866342
3616,2204012.0,79.78723404255821
3617,2204608.0,100.6711409395967
3618,2205144.0,111.9402985075455
3619,2205832.0,87.20930232556849
3620,2206340.0,118.1102362204107
3621,2207044.0,85.2272727273062
3622,2207656.0,98.03921568626168
3623,2208188.0,112.78195488718565
3624,2208800.0,98.03921568626168
3625,2209504.0,85.2272727273062
3626,2210060.0,107.91366906474043
3627,2210760.0,85.7142857142523
3628,2211304.0,110.29411764708537
3629,2211928.0,96.15384615387755
3630,2212612.0,87.71929824558885
3631,2213180.0,105.63380281694674
3632,2213808.0,95.54140127386155
3633,2214444.0,94.3396226415143
3634,2215084.0,93.75000000001866
3635,2215708.0,96.15384615380748
3636,2216336.0,95.54140127393073
3637,2216964.0,95.54140127386155
3638,2217608.0,93.16770186332036
3639,2218228.0,96.77419354840413
3640,2218856.0,95.54140127386155
3641,2219480.0,96.15384615387755
3642,2220108.0,95.54140127386155
3643,2220728.0,96.77419354840413
3644,2221376.0,92.59259259257284
3645,2222060.0,87.71929824564717
3646,2222676.0,97.40259740259971
3647,2223236.0,107.14285714286758
3648,2223848.0,98.03921568626168
3649,2224484.0,94.3396226415143
3650,2225104.0,96.77419354840413
3651,2225720.0,97.40259740259971
3652,2226444.0,82.87292817677725
3653,2226980.0,111.94029850745054
3654,2227608.0,95.54140127386155
3655,2228256.0,92.59259259263781
3656,2228888.0,94.9367088607502
3657,2229620.0,81.96721311475736
3658,2230252.0,94.9367088607502
3659,2230796.0,110.29411764708537
3660,2231492.0,86.20689655167862
3661,2232076.0,102.7397260274267
3662,2232700.0,96.15384615387755
3663,2233424.0,82.87292817677725
3664,2233972.0,109.48905109484473
3665,2234696.0,82.8729281768293
3666,2235244.0,109.48905109484473
3667,2235888.0,93.16770186338614
3668,2236508.0,96.77419354840413
3669,2237156.0,92.59259259257284
3670,2237820.0,90.36144578310332
3671,2238452.0,94.9367088607502
3672,2239188.0,81.52173913044848
3673,2239732.0,110.29411764708537
3674,2240472.0,81.08108108105517
3675,2241024.0,108.69565217397609
3676,2241668.0,93.16770186332036
3677,2242300.0,94.9367088607502
3678,2242960.0,90.90909090911096
3679,2243608.0,92.59259259257284
3680,2244248.0,93.75000000001866
3681,2244980.0,81.96721311475736
3682,2245528.0,109.48905109493558
3683,2246216.0,87.20930232556849
3684,2246796.0,103.44827586208194
3685,2247436.0,93.74999999995204
3686,2248072.0,94.3396226415143
3687,2248704.0,94.9367088607502
3688,2249384.0,88.2352941176683
3689,2249964.0,103.44827586208194
3690,2250616.0,92.02453987729446
3691,2251312.0,86.20689655173496
3692,2251848.0,111.94029850745054
3693,2252492.0,93.16770186332036
3694,2253084.0,101.35135135141239
3695,2253716.0,94.9367088607502
3696,2254328.0,98.03921568626168
3697,2254956.0,95.54140127386155
