"","time","hr","phase"
"1",332.854110003,64,1
"2",341.854110003,62,1
"3",342.854110003,62,1
"4",351.854110003,60,1
"5",352.854079962,59,1
"6",361.854079962,57,1
"7",366.854110003,57,1
"8",369.854110003,57,1
"9",375.854079962,57,1
"10",377.854079962,57,1
"11",384.854079962,57,1
"12",391.854110003,57,1
"13",392.854110003,57,1
"14",401.854110003,59,1
"15",405.854110003,59,1
"16",407.854110003,59,1
"17",414.854110003,59,1
"18",421.854110003,58,1
"19",426.854079962,57,1
"20",430.854110003,58,1
"21",432.854110003,58,1
"22",438.854079962,58,1
"23",443.854110003,58,1
"24",448.854110003,57,1
"25",455.854110003,56,1
"26",460.854110003,56,1
"27",466.854110003,58,1
"28",468.854110003,58,1
"29",473.854110003,57,1
"30",477.854110003,59,1
"31",485.854110003,62,2
"32",490.854079962,60,2
"33",496.854079962,59,2
"34",501.854110003,59,2
"35",502.854110003,59,2
"36",507.854110003,60,2
"37",513.854110003,59,2
"38",517.854079962,59,2
"39",523.854079962,59,2
"40",529.854079962,59,2
"41",534.854110003,60,2
"42",540.854110003,60,2
"43",542.854110003,60,2
"44",549.854110003,59,2
"45",556.854110003,59,2
"46",557.854110003,59,2
"47",563.854079962,59,2
"48",569.854110003,60,2
"49",576.854110003,61,2
"50",580.854110003,60,2
"51",586.854079962,60,2
"52",588.854079962,59,2
"53",592.854110003,60,2
"54",601.854079962,62,2
"55",602.854110003,62,2
"56",609.854079962,61,2
"57",616.854079962,60,2
"58",620.854110003,61,2
"59",622.854110003,60,2
"60",628.854110003,60,2
"61",632.854110003,59,2
"62",641.854079962,57,2
"63",642.854079962,58,2
"64",647.854110003,59,2
"65",656.854110003,62,2
"66",657.854079962,62,2
"67",665.854110003,62,2
"68",671.854079962,61,2
"69",676.854110003,60,2
"70",677.854079962,60,2
"71",685.854079962,61,2
"72",687.854079962,61,2
"73",696.854110003,59,2
"74",698.854079962,59,2
"75",705.854079962,60,2
"76",711.854079962,60,2
"77",714.854079962,59,2
"78",717.854079962,59,2
"79",725.854110003,59,2
"80",730.854110003,59,2
"81",736.854110003,59,2
"82",738.854110003,60,2
"83",743.854079962,60,2
"84",748.854079962,60,2
"85",755.854079962,59,2
"86",757.854110003,59,2
"87",766.854110003,58,2
"88",769.854110003,58,2
"89",773.854079962,59,2
"90",778.854110003,59,2
"91",783.854110003,59,2
"92",787.854110003,59,2
"93",793.854110003,61,2
"94",801.854079962,63,2
"95",802.854110003,62,2
"96",808.854110003,61,2
"97",814.854110003,63,2
"98",821.854079962,63,2
"99",822.854079962,63,2
"100",828.854110003,62,2
"101",836.854079962,62,2
"102",838.854110003,62,2
"103",843.854110003,64,2
"104",850.854110003,62,2
"105",855.854110003,61,2
"106",861.854079962,61,2
"107",866.854110003,60,2
"108",871.854110003,60,2
"109",872.854110003,61,2
"110",877.854110003,61,2
"111",885.854079962,63,2
"112",891.854110003,62,2
"113",892.854079962,62,2
"114",901.854110003,61,2
"115",904.854110003,60,2
"116",911.854079962,59,2
"117",914.854110003,60,2
"118",918.854110003,60,2
"119",922.854079962,61,2
"120",928.854110003,61,2
"121",934.854079962,61,2
"122",941.854110003,61,2
"123",946.854110003,60,2
"124",947.854110003,61,2
"125",954.854110003,62,2
"126",957.854110003,62,2
"127",965.854110003,61,2
"128",970.854110003,61,2
"129",973.854110003,61,2
"130",977.854079962,62,2
"131",986.854110003,62,2
"132",989.854110003,62,2
"133",995.854110003,62,2
"134",999.854110003,62,2
"135",1002.85407996,62,2
"136",1011.85407996,60,2
"137",1016.85407996,60,2
"138",1019.85407996,60,2
"139",1025.85411,61,2
"140",1031.85407996,62,2
"141",1035.85411,62,2
"142",1039.85411,62,2
"143",1042.85407996,63,2
"144",1048.85411,63,2
"145",1052.85411,62,3
"146",1060.85411,62,3
"147",1062.85407996,61,3
"148",1071.85411,60,3
"149",1072.85411,60,3
"150",1080.85411,60,3
"151",1083.85411,62,3
"152",1091.85407996,63,3
"153",1096.85407996,63,3
"154",1099.85411,62,3
"155",1106.85411,61,3
"156",1109.85411,61,3
"157",1114.85411,62,3
"158",1121.85411,64,3
"159",1123.85407996,64,3
"160",1127.85411,63,3
"161",1132.85411,62,3
"162",1140.85411,63,3
"163",1142.85411,63,3
"164",1147.85411,62,3
"165",1154.85411,62,3
"166",1160.85407996,62,3
"167",1166.85411,63,3
"168",1167.85411,63,3
"169",1176.85407996,64,3
"170",1177.85411,64,3
"171",1183.85407996,64,3
"172",1187.85407996,64,3
"173",1196.85411,62,3
"174",1199.85407996,62,3
"175",1206.85411,63,3
"176",1208.85411,63,3
"177",1216.85407996,64,3
"178",1221.85407996,64,3
"179",1226.85411,64,3
"180",1227.85411,64,3
"181",1234.85407996,64,3
"182",1237.85407996,64,3
"183",1244.85411,66,3
"184",1251.85407996,65,3
"185",1254.85411,64,3
"186",1259.85411,65,3
"187",1262.85411,66,3
"188",1267.85407996,66,3
"189",1276.85411,64,3
"190",1281.85407996,64,3
"191",1284.85411,64,3
"192",1289.85407996,65,3
"193",1296.85407996,65,3
"194",1299.85411,65,3
"195",1306.85411,65,3
"196",1309.85407996,65,3
"197",1312.85407996,66,3
"198",1320.85411,64,3
"199",1325.85407996,64,3
"200",1327.85411,64,3
"201",1333.85407996,64,3
"202",1338.85411,66,3
"203",1346.85411,65,3
"204",1349.85411,64,3
"205",1356.85411,64,3
"206",1359.85411,64,3
"207",1363.85411,64,3
"208",1368.85411,65,3
"209",1374.85411,65,3
"210",1377.85407996,65,3
"211",1385.85407996,65,3
"212",1391.85411,65,3
"213",1394.85411,65,3
"214",1397.85411,65,3
"215",1405.85411,65,3
"216",1407.85411,65,3
"217",1413.85407996,65,3
"218",1419.85407996,65,3
"219",1422.85411,65,3
"220",1428.85411,65,3
"221",1434.85411,65,3
"222",1437.85411,65,3
"223",1446.85411,64,3
"224",1451.85411,64,3
"225",1453.85411,64,3
"226",1457.85411,65,3
"227",1463.85407996,65,3
"228",1468.85411,66,3
"229",1474.85407996,65,3
"230",1477.85407996,65,3
"231",1482.85411,65,3
"232",1491.85411,64,3
"233",1495.85411,64,3
"234",1499.85411,65,3
"235",1506.85411,66,3
"236",1507.85411,66,3
"237",1513.85411,65,3
"238",1521.85411,66,3
"239",1525.85411,66,3
"240",1529.85407996,67,3
"241",1533.85411,67,3
"242",1541.85407996,66,3
"243",1545.85411,66,3
"244",1551.85407996,66,3
"245",1554.85407996,66,3
"246",1558.85411,66,3
"247",1565.85411,66,3
"248",1570.85411,66,3
"249",1572.85407996,67,3
"250",1577.85411,67,3
"251",1586.85411,66,3
"252",1587.85407996,66,3
"253",1594.85411,65,3
"254",1598.85411,65,3
"255",1605.85411,65,3
"256",1609.85411,66,3
"257",1614.85407996,65,3
"258",1617.85411,65,3
"259",1625.85411,65,3
"260",1631.85407996,65,3
"261",1633.85407996,65,3
"262",1637.85411,66,3
"263",1642.85411,67,3
"264",1649.85411,65,3
"265",1653.85407996,67,3
"266",1661.85407996,67,3
"267",1665.85411,67,3
"268",1670.85411,65,3
"269",1674.85411,65,3
"270",1679.85411,65,3
"271",1683.85411,65,3
"272",1690.85407996,65,3
"273",1696.85411,66,3
"274",1697.85407996,66,3
"275",1702.85411,68,3
"276",1711.85411,83,3
"277",1716.85407996,88,3
"278",1721.85411,90,3
"279",1722.85411,89,3
"280",1727.85411,81,3
"281",1736.85411,70,3
"282",1741.85411,67,3
"283",1746.85411,66,3
"284",1751.85411,65,3
"285",1756.85411,66,3
"286",1757.85411,66,3
"287",1765.85411,65,3
"288",1770.85407996,65,3
"289",1776.85407996,64,3
"290",1779.85411,65,3
"291",1784.85407996,65,3
"292",1790.85407996,64,3
"293",1792.85411,65,3
"294",1799.85411,64,3
"295",1806.85411,65,3
"296",1807.85407996,65,3
"297",1812.85411,65,3
"298",1820.85411,63,3
"299",1826.85407996,63,3
"300",1828.85411,63,3
"301",1833.85411,64,3
"302",1840.85411,66,3
"303",1845.85407996,66,3
"304",1849.85411,67,3
"305",1852.85411,67,3
"306",1857.85407996,66,3
"307",1865.85411,64,3
"308",1870.85411,64,3
"309",1875.85407996,66,3
"310",1878.85411,66,3
"311",1886.85411,63,3
"312",1889.85411,64,3
"313",1892.85411,64,3
"314",1898.84782004,64,3
"315",1905.84779,64,3
"316",1907.84779,64,3
"317",1912.84782004,64,3
"318",1920.84782004,62,3
"319",1926.84782004,64,3
"320",1927.84779,64,3
"321",1933.84782004,63,3
"322",1941.84779,64,3
"323",1944.84779,64,3
"324",1947.84782004,64,3
"325",1955.84782004,64,3
"326",1957.84779,64,3
"327",1965.84779,65,3
"328",1971.84779,66,3
"329",1972.84782004,65,3
"330",1981.84782004,64,3
"331",1985.84779,65,3
"332",1987.84782004,64,3
"333",1996.84779,64,3
"334",1997.84782004,64,3
"335",2006.84782004,65,3
"336",2007.84782004,65,3
"337",2014.84779,65,3
"338",2019.84782004,65,3
"339",2022.84779,65,3
"340",2031.84782004,64,3
"341",2035.84779,65,3
"342",2038.84782004,65,3
"343",2044.84779,64,3
"344",2048.84779,65,3
"345",2055.84782004,64,3
"346",2061.84782004,65,3
"347",2064.84782004,65,3
"348",2067.84782004,65,3
"349",2072.84779,65,3
"350",2081.84779,66,3
"351",2085.84782004,66,3
"352",2091.84779,65,3
"353",2095.84779,65,3
"354",2101.84782004,63,3
"355",2106.84782004,64,3
"356",2108.84779,64,3
"357",2114.84782004,65,3
"358",2117.84779,66,3
"359",2122.84782004,67,3
"360",2127.84779,66,3
"361",2136.84782004,64,3
"362",2139.84782004,64,3
"363",2143.84779,65,3
"364",2150.84782004,65,3
"365",2156.84779,65,3
"366",2161.84782004,65,3
"367",2163.84782004,65,3
"368",2170.84782004,65,3
"369",2175.84779,65,3
"370",2178.84782004,66,3
"371",2182.84782004,65,3
"372",2189.84779,64,3
"373",2196.84782004,64,3
"374",2197.84782004,64,3
"375",2205.84782004,64,3
"376",2208.84782004,64,3
"377",2214.84779,65,3
"378",2218.84782004,65,3
"379",2224.84779,66,3
"380",2228.84779,65,3
"381",2233.84782004,65,3
"382",2241.84779,62,3
"383",2245.84782004,62,3
"384",2248.84782004,62,3
"385",2252.84779,62,3
"386",2260.84779,60,3
"387",2264.84779,61,3
"388",2267.84782004,63,3
"389",2276.84782004,62,3
"390",2280.84782004,62,3
"391",2285.84782004,63,3
"392",2291.84779,63,3
"393",2292.84782004,63,3
"394",2298.84782004,64,3
"395",2305.84779,64,3
"396",2310.84782004,65,3
"397",2312.84779,64,3
"398",2321.84782004,64,3
"399",2322.84779,65,3
"400",2330.84779,65,3
"401",2336.84779,64,3
"402",2339.84779,64,3
"403",2343.84779,65,3
"404",2350.84779,65,3
"405",2356.84779,65,3
"406",2360.84782004,66,3
"407",2363.84782004,66,3
"408",2370.84782004,65,3
"409",2373.84782004,65,3
"410",2377.84782004,65,3
"411",2382.84782004,64,3
"412",2391.84782004,64,3
"413",2392.84782004,64,3
"414",2401.84782004,62,3
"415",2406.84782004,63,3
"416",2410.84782004,64,3
"417",2416.84779,64,3
"418",2418.84782004,64,3
"419",2422.84779,64,3
"420",2430.84782004,62,3
"421",2433.84782004,62,3
"422",2439.84782004,64,3
"423",2446.84782004,65,3
"424",2447.84779,65,3
"425",2452.84782004,65,3
"426",2461.84782004,63,3
"427",2466.84782004,64,3
"428",2467.84782004,64,3
"429",2475.84779,64,3
"430",2479.84779,65,3
"431",2482.84782004,65,3
"432",2489.84779,65,3
"433",2494.84782004,64,3
"434",2499.84782004,64,3
"435",2506.84782004,64,3
"436",2511.84782004,64,3
"437",2513.84782004,65,3
"438",2518.84779,65,3
"439",2526.84782004,64,3
"440",2527.84782004,64,3
"441",2535.84782004,64,3
"442",2541.84779,64,3
"443",2542.84782004,64,3
"444",2551.84782004,63,3
"445",2554.84779,63,3
"446",2558.84782004,63,3
"447",2566.84779,63,3
"448",2567.84782004,63,3
"449",2576.84782004,65,3
"450",2577.84782004,64,3
"451",2586.84782004,63,3
"452",2589.84782004,64,3
"453",2592.84782004,64,3
"454",2601.84782004,66,3
"455",2606.84782004,65,3
"456",2608.84782004,66,3
"457",2616.84782004,66,3
"458",2618.84782004,65,3
"459",2625.84782004,64,3
"460",2631.84782004,64,3
"461",2634.84782004,64,3
"462",2639.84782004,64,3
"463",2644.84782004,65,3
"464",2650.84782004,66,3
"465",2653.84782004,66,3
"466",2657.84782004,66,3
"467",2665.84782004,66,3
"468",2671.84779,66,3
"469",2675.84782004,66,3
"470",2678.84779,66,3
"471",2685.84782004,66,3
"472",2687.84782004,66,3
"473",2693.84782004,67,3
"474",2697.84782004,67,3
"475",2706.84782004,68,3
"476",2707.84782004,68,3
"477",2716.84782004,66,3
"478",2719.84779,66,3
"479",2725.84782004,66,3
"480",2729.84782004,66,3
"481",2732.84779,66,3
"482",2738.84782004,65,3
"483",2742.84782004,64,3
"484",2750.84782004,65,3
"485",2753.84779,65,3
"486",2758.84782004,66,3
"487",2765.84779,65,3
"488",2767.84782004,65,3
"489",2776.84782004,66,3
"490",2779.84779,66,3
"491",2783.84782004,66,3
"492",2788.84782004,66,3
"493",2794.84782004,65,3
"494",2798.84779,65,3
"495",2805.84782004,64,3
"496",2810.84782004,65,3
"497",2816.84782004,65,3
"498",2820.84782004,65,3
"499",2825.84782004,66,3
"500",2831.84782004,65,3
"501",2836.84779,65,3
"502",2838.84779,65,3
"503",2843.84782004,65,3
"504",2850.84782004,65,3
"505",2853.84782004,66,3
"506",2861.84782004,66,3
"507",2862.84779,67,3
"508",2868.84779,67,3
"509",2876.84782004,66,3
"510",2879.84782004,65,3
"511",2882.84779,66,3
"512",2889.84779,65,3
"513",2892.84782004,65,3
"514",2901.84782004,62,3
"515",2903.84782004,63,3
"516",2907.84782004,63,3
"517",2915.84782004,64,3
"518",2919.84779,65,3
"519",2923.84782004,64,3
"520",2928.84782004,65,3
"521",2935.84779,64,3
"522",2941.84782004,64,3
"523",2943.84779,64,3
"524",2951.84779,64,3
"525",2954.84779,64,3
"526",2959.84782004,64,3
"527",2962.84779,64,3
"528",2971.84779,62,3
"529",2974.84782004,63,3
"530",2979.84779,63,3
"531",2984.84779,63,3
"532",2991.84782004,62,3
"533",2994.84782004,63,3
"534",3001.84782004,64,3
"535",3006.84782004,64,3
"536",3007.84779,64,3
"537",3012.84782004,63,3
"538",3021.84782004,61,3
"539",3025.84782004,62,3
"540",3027.84782004,63,3
"541",3036.84782004,65,3
"542",3038.84782004,64,3
"543",3044.84782004,64,3
"544",3049.84782004,65,3
"545",3055.84779,64,3
"546",3057.84779,65,3
"547",3063.84782004,66,3
"548",3067.84782004,67,3
"549",3076.84782004,64,3
"550",3078.84782004,64,3
"551",3082.84779,64,3
"552",3089.84782004,64,3
"553",3092.84782004,64,3
"554",3100.84779,63,3
"555",3105.84782004,64,3
"556",3107.84779,64,3
"557",3115.84782004,64,3
"558",3117.84782004,64,3
"559",3124.84782004,65,3
"560",3127.84779,65,3
"561",3132.84782004,64,3
"562",3139.84782004,63,3
"563",3142.84782004,62,3
"564",3150.84782004,64,3
"565",3155.84782004,64,3
"566",3160.84782004,64,3
"567",3162.84779,65,3
"568",3171.84782004,62,3
"569",3176.84779,62,3
"570",3180.84779,63,3
"571",3184.84782004,64,3
"572",3188.84779,64,3
"573",3195.84782004,63,3
"574",3198.84782004,63,3
"575",3203.84779,62,3
"576",3208.84779,64,3
"577",3216.84782004,64,3
"578",3217.84782004,64,3
"579",3226.84782004,63,3
"580",3229.84779,64,3
"581",3232.84782004,64,3
"582",3276.84782004,81,2
"583",3281.84782004,81,2
"584",3283.84782004,80,2
"585",3287.84779,78,2
"586",3296.84782004,72,2
"587",3298.84782004,73,2
"588",3306.84782004,74,2
"589",3307.84782004,73,2
"590",3312.84779,72,2
"591",3317.84782004,71,2
"592",3326.84779,67,2
"593",3328.84782004,68,2
"594",3336.84779,65,2
"595",3341.84782004,65,2
"596",3346.84782004,65,2
"597",3348.84779,65,2
"598",3352.84782004,66,2
"599",3357.84782004,66,2
"600",3362.84782004,67,2
"601",3369.84782004,66,2
"602",3373.84779,67,2
"603",3381.84782004,67,2
"604",3386.84779,66,2
"605",3389.84779,66,2
"606",3395.84782004,67,2
"607",3400.84779,68,2
"608",3403.84782004,69,2
"609",3408.84782004,69,2
"610",3412.84779,68,2
"611",3420.84782004,67,2
"612",3426.84779,68,2
"613",3429.84782004,68,2
"614",3433.84779,69,2
"615",3441.84782004,68,2
"616",3442.84782004,68,2
"617",3451.84782004,66,2
"618",3456.84782004,65,2
"619",3457.84782004,65,2
"620",3466.84779,65,2
"621",3471.84779,65,2
"622",3472.84779,65,2
"623",3477.84782004,66,2
"624",3485.84782004,65,2
"625",3491.84782004,65,2
"626",3494.84782004,65,2
"627",3499.84779,65,2
"628",3502.84779,65,2
"629",3507.84782004,67,2
"630",3516.84782004,64,2
"631",3518.84782004,64,2
"632",3526.84779,64,2
"633",3531.84782004,64,2
"634",3536.84782004,64,2
"635",3540.84782004,64,2
"636",3543.84782004,64,2
"637",3549.84782004,64,2
"638",3555.84779,64,2
"639",3558.84782004,65,2
"640",3562.84782004,65,2
"641",3571.84782004,63,2
"642",3576.84782004,64,2
"643",3579.84782004,63,2
"644",3582.84782004,64,2
"645",3587.84779,66,2
"646",3596.84782004,62,2
"647",3600.84782004,61,2
"648",3606.84782004,64,2
"649",3610.84782004,65,2
"650",3613.84782004,66,2
"651",3620.84779,67,2
"652",3623.84782004,67,2
"653",3627.84779,67,2
"654",3636.84779,63,2
"655",3640.84782004,64,2
"656",3642.84779,63,2
"657",3651.84779,64,2
"658",3654.84779,64,2
"659",3657.84782004,64,2
"660",3666.84782004,63,2
"661",3669.84782004,65,2
"662",3672.84782004,64,2
"663",3681.84782004,60,2
"664",3686.84782004,59,2
"665",3688.84779,59,2
"666",3692.84779,61,2
"667",3701.84782004,69,2
"668",3706.84782004,72,2
"669",3708.84782004,72,2
"670",3715.84782004,72,2
"671",3720.84782004,72,2
"672",3722.84782004,72,2
"673",3731.84782004,70,2
"674",3734.84779,71,2
"675",3737.84782004,71,2
"676",3746.84782004,69,2
"677",3750.84782004,68,2
"678",3752.84779,68,2
"679",3757.84782004,67,2
"680",3762.84782004,66,2
"681",3771.84779,64,2
"682",3775.84782004,65,2
"683",3777.84779,66,2
"684",3785.84782004,70,2
"685",3790.84782004,70,2
"686",3792.84782004,69,2
"687",3797.84779,68,2
"688",3805.84779,66,2
"689",3808.84782004,66,2
"690",3812.84782004,65,2
"691",3821.84779,62,2
"692",3823.84782004,62,2
"693",3830.84779,67,2
"694",3836.84779,70,2
"695",3837.84782004,70,2
"696",3846.84779,73,2
"697",3848.84779,72,2
"698",3856.84782004,69,2
"699",3859.84782004,68,2
"700",3863.84779,67,2
"701",3868.84782004,66,2
"702",3876.84782004,64,2
"703",3877.84782004,64,2
"704",3882.84782004,66,2
"705",3891.84782004,71,2
"706",3893.84782004,71,2
"707",3898.84779,73,2
"708",3903.84779,71,5
"709",3910.84782004,70,5
"710",3912.84782004,71,5
"711",3919.84782004,73,5
"712",3923.84782004,73,5
"713",3927.84779,71,5
"714",3936.84782004,62,5
"715",3941.84779,61,5
"716",3946.84782004,61,5
"717",3948.84782004,61,5
"718",3952.84782004,64,5
"719",3958.84782004,70,5
"720",3966.84782004,76,5
"721",3971.84779,75,5
"722",3976.84782004,73,5
"723",3977.84782004,72,5
"724",3986.84782004,68,5
"725",3991.84782004,66,5
"726",3996.84782004,67,5
"727",3997.84782004,67,5
"728",4006.84779,78,5
"729",4009.84782004,77,5
"730",4012.84779,76,5
"731",4021.84779,69,5
"732",4026.84782004,70,5
"733",4029.84782004,70,5
"734",4032.84779,71,5
"735",4039.84782004,72,5
"736",4046.84782004,73,5
"737",4049.84779,72,5
"738",4052.84782004,73,5
"739",4057.84782004,76,5
"740",4066.84782004,81,5
"741",4071.84779,81,5
"742",4075.84782004,81,5
"743",4077.84782004,81,5
"744",4083.84782004,83,5
"745",4091.84779,80,5
"746",4094.84782004,80,5
"747",4097.84782004,79,5
"748",4105.84782004,76,5
"749",4107.84782004,76,5
"750",4116.84782004,69,5
"751",4120.84782004,70,5
"752",4126.84782004,77,5
"753",4130.84779,76,5
"754",4133.84782004,76,5
"755",4141.84782004,79,5
"756",4143.84782004,79,5
"757",4148.84782004,78,5
"758",4156.84782004,81,5
"759",4161.84782004,81,5
"760",4162.84782004,81,5
"761",4170.84779,84,5
"762",4172.84782004,83,5
"763",4180.84779,83,5
"764",4183.84779,82,5
"765",4190.84782004,81,5
"766",4192.84779,81,5
"767",4197.84779,80,5
"768",4206.84782004,78,5
"769",4211.84782004,80,5
"770",4216.84779,81,5
"771",4219.84779,81,5
"772",4226.84782004,78,5
"773",4229.84782004,79,5
"774",4232.84782004,78,1
"775",4241.84779,72,1
"776",4246.84782004,70,1
"777",4248.84782004,71,1
"778",4252.84782004,73,1
"779",4261.84782004,82,5
"780",4265.84779,81,5
"781",4268.84779,80,5
"782",4273.84782004,83,5
"783",4281.84782004,78,5
"784",4282.84782004,79,5
"785",4291.84782004,84,5
"786",4292.84782004,84,5
"787",4301.84782004,92,5
"788",4302.84779,92,5
"789",4311.84779,76,5
"790",4316.84782004,73,5
"791",4321.84782004,70,5
"792",4326.84782004,69,5
"793",4328.84779,69,5
"794",4335.84782004,69,5
"795",4337.84782004,70,5
"796",4346.84779,75,5
"797",4350.84782004,75,5
"798",4352.84779,74,5
"799",4359.84779,70,5
"800",4366.84782004,70,5
"801",4367.84779,69,5
"802",4375.84782004,68,5
"803",4377.84782004,69,5
"804",4386.84782004,75,5
"805",4388.84782004,74,5
"806",4396.84782004,70,5
"807",4401.84782004,69,5
"808",4404.84779,70,5
"809",4411.84782004,72,5
"810",4412.84782004,72,5
"811",4419.84782004,70,5
"812",4424.84782004,69,5
"813",4428.84782004,68,5
"814",4434.84782004,71,5
"815",4441.84782004,73,5
"816",4446.84782004,73,5
"817",4447.84782004,74,5
"818",4456.84782004,68,5
"819",4459.84782004,69,5
"820",4463.84779,70,5
"821",4469.84782004,71,5
"822",4476.84782004,71,5
"823",4477.84782004,71,5
"824",4482.84782004,72,5
"825",4491.84782004,79,5
"826",4495.84779,81,5
"827",4498.84782004,81,5
"828",4502.84779,80,5
"829",4511.84779,75,5
"830",4516.84782004,75,5
"831",4521.84782004,75,5
"832",4523.84782004,75,5
"833",4528.84782004,76,5
"834",4533.84782004,77,5
"835",4541.84782004,71,5
"836",4546.84782004,71,5
"837",4549.84779,71,5
"838",4555.84782004,71,5
"839",4559.84782004,72,5
"840",4562.84782004,72,5
"841",4571.84779,76,5
"842",4572.84782004,76,5
"843",4580.84782004,78,5
"844",4582.84779,78,5
"845",4587.84782004,75,5
"846",4596.84782004,70,5
"847",4601.84782004,70,5
"848",4606.84782004,70,5
"849",4607.84782004,71,5
"850",4614.84782004,72,5
"851",4617.84779,73,5
"852",4626.84782004,80,5
"853",4631.84782004,80,5
"854",4632.84782004,80,5
"855",4641.84779,79,5
"856",4646.84779,80,5
"857",4651.84782004,80,5
"858",4652.84782004,80,5
"859",4657.84782004,79,5
"860",4666.84782004,72,5
"861",4671.84782004,72,5
"862",4674.84782004,72,5
"863",4681.84782004,75,5
"864",4682.84782004,75,5
"865",4691.84782004,69,5
"866",4696.84779,69,5
"867",4698.84782004,69,5
"868",4706.84782004,70,5
"869",4708.84779,70,5
"870",4716.84779,71,5
"871",4719.84782004,71,5
"872",4722.84782004,73,5
"873",4730.84782004,78,5
"874",4735.84782004,80,5
"875",4741.84782004,82,5
"876",4744.84779,81,5
"877",4751.84779,79,5
"878",4754.84779,81,5
"879",4757.84779,80,5
"880",4762.84782004,77,5
"881",4771.84782004,70,5
"882",4776.84779,70,5
"883",4779.84782004,71,5
"884",4782.84779,72,5
"885",4788.84782004,73,5
"886",4794.84779,73,5
"887",4797.84782004,71,5
"888",4806.84779,67,5
"889",4811.84782004,67,5
"890",4812.84782004,68,5
"891",4819.84782004,73,5
"892",4825.84782004,73,5
"893",4827.84782004,73,5
"894",4836.84782004,75,5
"895",4837.84782004,74,5
"896",4842.84782004,72,5
"897",4851.84782004,68,5
"898",4856.84782004,69,5
"899",4857.84779,70,5
"900",4865.84782004,71,5
"901",4869.84779,71,5
"902",4874.84782004,71,5
"903",4881.84779,74,5
"904",4883.84782004,73,5
"905",4891.84782004,68,5
"906",4896.84779,68,5
"907",4900.84782004,70,5
"908",4903.84782004,71,5
"909",4908.84782004,72,5
"910",4912.84779,70,5
"911",4921.84782004,65,5
"912",4923.84782004,65,5
"913",4931.84779,64,5
"914",4932.84782004,65,5
"915",4937.84782004,69,5
"916",4944.84782004,71,5
"917",4949.84782004,72,5
"918",4952.84779,73,5
"919",4957.84782004,70,5
"920",4965.84782004,68,5
"921",4967.84779,69,5
"922",4972.84779,73,5
"923",4981.84782004,82,5
"924",4982.84782004,81,5
"925",4991.84782004,67,5
"926",4996.84782004,62,5
"927",4998.84782004,63,5
"928",5006.84779,61,5
"929",5010.84782004,62,5
"930",5012.84782004,63,5
"931",5019.84779,64,5
"932",5024.84782004,65,5
"933",5027.84782004,64,5
"934",5036.84782004,63,5
"935",5039.84782004,64,5
"936",5042.84782004,67,5
"937",5051.84782004,74,5
"938",5056.84779,72,5
"939",5057.84782004,72,5
"940",5066.84782004,73,5
"941",5069.84779,73,5
"942",5072.84782004,72,5
"943",5077.84779,67,5
"944",5086.84779,62,5
"945",5091.84782004,64,5
"946",5096.84782004,67,5
"947",5098.84782004,67,5
"948",5104.84779,65,5
"949",5110.84782004,67,5
"950",5114.84782004,66,5
"951",5117.84782004,65,5
"952",5126.84779,63,5
"953",5131.84782004,64,5
"954",5133.84779,64,5
"955",5137.84782004,63,5
"956",5146.84782004,70,5
"957",5148.84782004,69,5
"958",5155.84779,71,5
"959",5159.84782004,71,5
"960",5163.84779,71,5
"961",5171.84782004,69,5
"962",5172.84779,70,5
"963",5181.84782004,67,5
"964",5182.84779,68,5
"965",5187.84782004,71,5
"966",5196.84782004,66,5
"967",5199.84782004,68,5
"968",5206.84782004,70,5
"969",5208.84782004,69,5
"970",5216.84779,66,5
"971",5219.84782004,67,5
"972",5226.84782004,72,5
"973",5227.84779,73,5
"974",5236.84782004,74,5
"975",5237.84782004,74,5
"976",5243.84782004,80,5
"977",5247.84782004,76,5
"978",5256.84782004,65,5
"979",5261.84779,63,5
"980",5266.84782004,64,5
"981",5271.84779,65,5
"982",5272.84782004,65,5
"983",5277.84782004,63,5
"984",5283.84782004,62,5
"985",5291.84782004,68,5
"986",5296.84782004,68,5
"987",5298.84782004,69,5
"988",5304.84782004,70,5
"989",5311.84779,66,5
"990",5315.84782004,67,5
"991",5318.84782004,69,5
"992",5322.84779,69,5
"993",5331.84782004,65,5
"994",5336.84782004,68,5
"995",5339.84782004,67,5
"996",5346.84782004,72,5
"997",5348.84782004,73,5
"998",5352.84779,73,5
"999",5358.84782004,74,5
"1000",5366.84782004,69,5
"1001",5370.84782004,68,5
"1002",5374.84779,67,5
"1003",5377.84779,69,5
"1004",5386.84782004,71,5
"1005",5389.84782004,71,5
"1006",5396.84782004,74,5
"1007",5397.84779,73,5
"1008",5404.84782004,71,5
"1009",5407.84779,73,5
"1010",5412.84782004,75,5
"1011",5419.84782004,75,5
"1012",5422.84782004,76,5
"1013",5431.84779,83,5
"1014",5436.84782004,80,5
"1015",5440.84782004,80,5
"1016",5446.84782004,81,5
"1017",5450.84779,80,5
"1018",5452.84782004,81,5
"1019",5461.84782004,90,5
"1020",5465.84782004,93,5
"1021",5467.84782004,93,5
"1022",5476.84782004,75,5
"1023",5481.84782004,71,5
"1024",5486.84782004,69,5
"1025",5487.84782004,69,5
"1026",5496.84782004,66,5
"1027",5501.84779,67,5
"1028",5506.84460998,69,5
"1029",5509.84460998,68,5
"1030",5514.84464002,68,5
"1031",5517.84464002,69,5
"1032",5524.84460998,70,5
"1033",5527.84460998,70,5
"1034",5534.84460998,69,5
"1035",5539.84464002,70,5
"1036",5542.84464002,72,5
"1037",5547.84464002,75,5
"1038",5554.84464002,80,5
"1039",5557.84460998,77,5
"1040",5566.84464002,67,5
"1041",5567.84460998,67,5
"1042",5576.84464002,61,5
"1043",5581.84464002,61,5
"1044",5584.84464002,61,5
"1045",5588.84464002,64,5
"1046",5596.84460998,68,5
"1047",5598.84464002,68,5
"1048",5605.84460998,71,5
"1049",5610.84464002,72,5
"1050",5614.84464002,71,5
"1051",5617.84460998,73,5
"1052",5622.84464002,75,5
"1053",5628.84464002,78,5
"1054",5636.84464002,82,5
"1055",5638.84464002,80,5
"1056",5643.84464002,78,5
"1057",5647.84464002,76,5
"1058",5656.84464002,70,5
"1059",5658.84460998,71,5
"1060",5666.84464002,73,5
"1061",5670.84464002,72,5
"1062",5672.84460998,73,5
"1063",5681.84464002,77,5
"1064",5686.84464002,75,5
"1065",5691.84460998,75,5
"1066",5692.84464002,76,5
"1067",5697.84464002,76,5
"1068",5706.84460998,72,5
"1069",5709.84460998,71,5
"1070",5713.84464002,71,5
"1071",5720.84464002,69,5
"1072",5724.84464002,68,5
"1073",5727.84464002,70,5
"1074",5735.84464002,73,5
"1075",5737.84464002,73,5
"1076",5744.84464002,77,5
"1077",5747.84460998,75,5
"1078",5756.84460998,69,5
"1079",5761.84464002,69,5
"1080",5762.84464002,69,5
"1081",5771.84464002,68,5
"1082",5772.84464002,68,5
"1083",5777.84464002,70,5
"1084",5782.84464002,72,5
"1085",5791.84464002,74,5
"1086",5796.84464002,72,5
"1087",5801.84464002,72,5
"1088",5806.84464002,72,5
"1089",5807.84460998,72,5
"1090",5812.84464002,73,5
"1091",5819.84464002,79,5
"1092",5826.84460998,70,5
"1093",5831.84460998,67,5
"1094",5836.84464002,65,5
"1095",5840.84464002,65,5
"1096",5846.84460998,63,5
"1097",5849.84464002,64,5
"1098",5852.84460998,65,5
"1099",5859.84460998,69,5
"1100",5866.84464002,76,5
"1101",5867.84464002,77,5
"1102",5876.84460998,67,5
"1103",5881.84460998,64,5
"1104",5886.84464002,64,5
"1105",5887.84464002,64,5
"1106",5895.84464002,69,5
"1107",5898.84464002,70,5
"1108",5906.84464002,72,5
"1109",5907.84464002,71,5
"1110",5914.84460998,68,5
"1111",5917.84460998,70,5
"1112",5926.84464002,81,5
"1113",5927.84464002,81,5
"1114",5936.84464002,70,5
"1115",5941.84464002,67,5
"1116",5942.84464002,66,5
"1117",5950.84464002,61,5
"1118",5956.84464002,59,5
"1119",5959.84460998,59,5
"1120",5964.84464002,59,5
"1121",5970.84460998,58,5
"1122",5974.84464002,57,5
"1123",5977.84464002,59,5
"1124",5986.84460998,65,5
"1125",5989.84464002,65,5
"1126",5996.84460998,62,5
"1127",6001.84464002,61,5
"1128",6006.84460998,61,5
"1129",6007.84460998,61,5
"1130",6014.84460998,61,5
"1131",6019.84460998,61,5
"1132",6026.84464002,66,5
"1133",6029.84464002,67,5
"1134",6036.84460998,68,5
"1135",6037.84460998,68,5
"1136",6042.84464002,68,5
"1137",6047.84460998,68,5
"1138",6056.84460998,63,5
"1139",6060.84464002,61,5
"1140",6064.84464002,61,5
"1141",6067.84460998,62,5
"1142",6076.84464002,65,5
"1143",6077.84464002,64,5
"1144",6083.84460998,69,5
"1145",6091.84464002,61,5
"1146",6096.84460998,59,5
"1147",6101.84460998,58,5
"1148",6104.84464002,58,5
"1149",6109.84464002,61,5
"1150",6116.84464002,65,5
"1151",6117.84464002,65,5
"1152",6122.84464002,68,5
"1153",6128.84464002,77,5
"1154",6136.84460998,69,5
"1155",6141.84464002,64,5
"1156",6142.84464002,63,5
"1157",6151.84464002,58,5
"1158",6156.84464002,57,5
"1159",6161.84460998,56,5
"1160",6162.84464002,56,5
"1161",6169.84460998,59,5
"1162",6176.84464002,62,5
"1163",6178.84464002,61,5
"1164",6186.84464002,65,5
"1165",6191.84464002,62,5
"1166",6194.84464002,62,5
"1167",6201.84464002,65,5
"1168",6204.84464002,65,5
"1169",6208.84464002,65,5
"1170",6212.84464002,65,5
"1171",6221.84464002,62,5
"1172",6226.84464002,64,5
"1173",6230.84460998,64,5
"1174",6233.84460998,64,5
"1175",6241.84460998,63,5
"1176",6242.84464002,63,5
"1177",6247.84460998,63,5
"1178",6256.84464002,60,5
"1179",6259.84460998,61,5
"1180",6262.84460998,61,5
"1181",6268.84464002,65,5
"1182",6272.84464002,66,5
"1183",6281.84464002,61,5
"1184",6286.84464002,61,5
"1185",6290.84464002,61,5
"1186",6293.84464002,61,5
"1187",6297.84464002,64,5
"1188",6303.84464002,71,5
"1189",6311.84460998,64,5
"1190",6314.84464002,61,5
"1191",6321.84460998,59,5
"1192",6325.84460998,59,5
"1193",6331.84460998,58,5
"1194",6333.84460998,58,5
"1195",6340.84460998,61,5
"1196",6346.84460998,62,5
"1197",6348.84464002,62,5
"1198",6355.84464002,60,5
"1199",6359.84464002,60,5
"1200",6362.84464002,61,5
"1201",6371.84464002,64,5
"1202",6373.84464002,64,5
"1203",6377.84464002,65,5
"1204",6382.84460998,67,5
"1205",6391.84464002,64,5
"1206",6392.84464002,64,5
"1207",6397.84464002,62,5
"1208",6405.84464002,60,5
"1209",6411.84464002,60,5
"1210",6412.84460998,60,5
"1211",6417.84464002,61,5
"1212",6422.84460998,63,5
"1213",6430.84460998,67,5
"1214",6432.84464002,67,5
"1215",6441.84464002,64,5
"1216",6443.84460998,65,5
"1217",6447.84464002,66,5
"1218",6455.84464002,65,5
"1219",6458.84464002,67,5
"1220",6465.84464002,66,5
"1221",6468.84464002,67,5
"1222",6473.84460998,66,5
"1223",6477.84464002,67,5
"1224",6483.84464002,66,5
"1225",6487.84460998,65,5
"1226",6494.84460998,63,5
"1227",6501.84464002,62,5
"1228",6505.84464002,63,5
"1229",6509.84460998,63,5
"1230",6512.84464002,63,5
"1231",6521.84464002,60,5
"1232",6525.84464002,60,5
"1233",6530.84464002,60,5
"1234",6536.84460998,60,5
"1235",6541.84460998,60,5
"1236",6542.84460998,60,5
"1237",6550.84460998,65,5
"1238",6555.84464002,64,5
"1239",6560.84464002,67,5
"1240",6566.84464002,65,5
"1241",6567.84464002,65,5
"1242",6576.84464002,63,5
"1243",6577.84460998,62,5
"1244",6586.84464002,59,5
"1245",6588.84464002,60,5
"1246",6592.84460998,61,5
"1247",6601.84464002,59,5
"1248",6606.84460998,58,5
"1249",6611.84464002,59,5
"1250",6614.84464002,59,5
"1251",6617.84464002,59,5
"1252",6626.84460998,64,5
"1253",6631.84460998,65,5
"1254",6634.84460998,66,5
"1255",6638.84460998,66,5
"1256",6646.84464002,63,5
"1257",6651.84464002,63,5
"1258",6654.84464002,63,5
"1259",6658.84460998,62,5
"1260",6662.84464002,62,5
"1261",6667.84464002,63,5
"1262",6673.84464002,63,5
"1263",6678.84464002,62,5
"1264",6685.84464002,60,5
"1265",6691.84464002,58,5
"1266",6696.84460998,58,5
"1267",6697.84464002,59,5
"1268",6706.84464002,62,5
"1269",6707.84464002,61,5
"1270",6712.84464002,62,5
"1271",6717.84460998,62,5
"1272",6726.84464002,57,5
"1273",6731.84464002,59,5
"1274",6732.84460998,59,5
"1275",6738.84464002,59,5
"1276",6745.84464002,63,5
"1277",6781.84464002,62,1
"1278",6786.84464002,62,1
"1279",6788.84464002,63,1
"1280",6793.84464002,65,1
"1281",6797.84464002,69,1
"1282",6802.84464002,75,1
"1283",6811.84464002,96,1
"1284",6815.84464002,97,1
"1285",6817.84464002,95,1
"1286",6826.84464002,75,1
"1287",6831.84460998,72,1
"1288",6836.84464002,68,1
"1289",6841.84464002,69,2
"1290",6842.84464002,69,2
"1291",6850.84464002,67,2
"1292",6852.84464002,67,2
"1293",6861.84464002,65,2
"1294",6862.84464002,65,2
"1295",6871.84464002,62,2
"1296",6876.84464002,62,2
"1297",6880.84464002,63,2
"1298",6886.84464002,64,2
"1299",6888.84464002,64,2
"1300",6895.84464002,65,2
"1301",6897.84464002,66,2
"1302",6905.84460998,66,2
"1303",6909.84464002,65,2
"1304",6916.84460998,65,2
"1305",6921.84464002,65,2
"1306",6925.84460998,65,2
"1307",6928.84460998,65,2
"1308",6936.84464002,65,2
"1309",6939.84460998,65,2
"1310",6943.84464002,66,2
"1311",6949.84460998,66,2
"1312",6952.84464002,66,2
"1313",6957.84460998,66,2
"1314",6966.84464002,66,2
"1315",6967.84464002,66,2
"1316",6972.84464002,66,2
"1317",6980.84464002,67,2
"1318",6983.84464002,68,2
"1319",6987.84464002,68,2
"1320",6993.84464002,67,2
"1321",6998.84460998,67,2
"1322",7002.84464002,67,2
"1323",7011.84464002,63,2
"1324",7014.84460998,63,2
"1325",7019.84464002,65,2
"1326",7026.84460998,66,2
"1327",7031.84460998,66,2
"1328",7036.84460998,66,2
"1329",7041.84464002,66,2
"1330",7044.84464002,65,2
"1331",7048.84464002,66,2
"1332",7052.84464002,65,2
"1333",7061.84464002,65,2
"1334",7063.84464002,66,2
"1335",7067.84464002,66,2
"1336",7072.84460998,67,2
"1337",7081.84464002,65,2
"1338",7083.84464002,66,2
"1339",7091.84464002,66,2
"1340",7092.84460998,66,2
"1341",7097.84464002,67,2
"1342",7102.84464002,66,2
"1343",7108.84464002,66,2
"1344",7116.84464002,69,2
"1345",7117.84460998,68,2
"1346",7126.84464002,65,2
"1347",7131.84460998,65,2
"1348",7135.84464002,66,2
"1349",7137.84460998,66,2
"1350",7146.84464002,66,2
"1351",7149.84464002,66,2
"1352",7156.84460998,66,2
"1353",7159.84464002,66,2
"1354",7162.84464002,66,2
"1355",7167.84464002,66,2
"1356",7174.84464002,66,2
"1357",7177.84464002,66,2
"1358",7184.84460998,67,2
"1359",7187.84464002,66,2
"1360",7194.84460998,66,2
"1361",7197.84464002,70,2
"1362",7206.84460998,73,2
"1363",7207.84464002,72,2
"1364",7216.84460998,67,2
"1365",7217.84460998,66,2
"1366",7225.84460998,62,2
"1367",7230.84460998,62,2
"1368",7232.84464002,62,2
"1369",7241.84464002,65,2
"1370",7246.84464002,65,2
"1371",7250.84464002,66,2
"1372",7256.84464002,66,2
"1373",7257.84460998,65,2
"1374",7262.84460998,65,2
"1375",7271.84464002,66,2
"1376",7275.84464002,66,2
"1377",7279.84464002,65,2
"1378",7286.84464002,65,2
"1379",7288.84464002,65,2
"1380",7293.84460998,65,2
"1381",7299.84464002,65,2
"1382",7306.84460998,65,2
"1383",7310.84464002,65,2
"1384",7313.84464002,65,2
"1385",7317.84464002,66,2
"1386",7326.84464002,66,2
"1387",7327.84460998,66,2
"1388",7334.84460998,65,2
"1389",7340.84460998,66,2
"1390",7343.84464002,66,2
"1391",7351.84464002,65,2
"1392",7352.84464002,66,2
"1393",7358.84464002,67,2
"1394",7366.84460998,66,2
"1395",7370.84464002,66,2
"1396",7373.84464002,66,2
"1397",7377.84464002,66,2
"1398",7386.84464002,65,2
"1399",7387.84460998,66,2
"1400",7395.84464002,66,2
"1401",7398.84464002,65,2
"1402",7404.84460998,65,2
"1403",7411.84464002,65,2
"1404",7414.84460998,65,2
"1405",7418.84464002,66,2
"1406",7426.84464002,66,2
"1407",7430.84460998,66,2
"1408",7433.84460998,67,2
"1409",7441.84460998,64,2
"1410",7445.84464002,65,2
"1411",7449.84464002,65,2
"1412",7456.84464002,65,2
"1413",7460.84460998,65,2
"1414",7465.84464002,66,2
"1415",7468.84464002,66,2
"1416",7474.84460998,66,2
"1417",7481.84464002,67,2
"1418",7482.84464002,67,2
"1419",7489.84464002,68,2
"1420",7496.84464002,67,2
"1421",7500.84464002,66,2
"1422",7506.84464002,66,2
"1423",7511.84464002,65,2
"1424",7516.84460998,65,2
"1425",7517.84460998,66,2
"1426",7522.84464002,67,2
"1427",7527.84460998,66,2
"1428",7533.84464002,66,2
"1429",7540.84464002,66,2
"1430",7546.84464002,66,2
"1431",7549.84464002,66,2
"1432",7553.84464002,66,2
"1433",7559.84460998,67,2
"1434",7563.84464002,68,2
"1435",7567.84464002,68,2
"1436",7575.84464002,68,2
"1437",7578.84464002,68,2
"1438",7586.84464002,66,2
"1439",7591.84464002,66,2
"1440",7593.84464002,67,2
"1441",7601.84464002,65,2
"1442",7606.84464002,66,2
"1443",7609.84464002,66,2
"1444",7615.84464002,66,2
"1445",7617.84464002,66,2
"1446",7622.84464002,66,2
"1447",7627.84464002,66,2
"1448",7633.84460998,66,2
"1449",7640.84464002,66,2
"1450",7642.84464002,66,2
"1451",7650.84460998,67,2
"1452",7655.84464002,68,2
"1453",7661.84460998,68,2
"1454",7662.84464002,68,2
"1455",7667.84460998,68,2
"1456",7675.84460998,67,2
"1457",7678.84460998,67,2
"1458",7683.84464002,67,2
"1459",7691.84460998,67,2
"1460",7695.84464002,67,2
"1461",7701.84464002,67,2
"1462",7706.84464002,67,2
"1463",7707.84464002,67,2
"1464",7712.84460998,67,2
"1465",7719.84464002,67,2
"1466",7726.84464002,66,2
"1467",7727.84460998,66,2
"1468",7735.84464002,66,2
"1469",7739.84464002,67,2
"1470",7744.84460998,68,2
"1471",7751.84464002,67,2
"1472",7756.84464002,67,2
"1473",7758.84464002,67,2
"1474",7762.84464002,67,2
"1475",7771.84460998,65,2
"1476",7776.84464002,65,2
"1477",7777.84464002,65,2
"1478",7786.84460998,66,2
"1479",7787.84464002,66,2
"1480",7795.84464002,67,2
"1481",7799.84464002,67,2
"1482",7803.84464002,68,2
"1483",7807.84460998,68,2
"1484",7812.84464002,68,2
"1485",7817.84464002,68,2
"1486",7825.84464002,66,2
"1487",7827.84460998,66,2
"1488",7832.84464002,67,2
"1489",7839.84460998,66,2
"1490",7843.84464002,66,2
"1491",7851.84464002,69,2
"1492",7853.84464002,68,2
"1493",7859.84460998,68,2
"1494",7862.84460998,68,2
"1495",7867.84464002,68,2
"1496",7876.84464002,67,2
"1497",7879.84460998,67,2
"1498",7883.84464002,68,2
"1499",7891.84464002,66,2
"1500",7896.84460998,67,2
"1501",7899.84460998,67,2
"1502",7902.84464002,68,2
"1503",7911.84464002,68,2
"1504",7914.84464002,69,2
"1505",7917.84460998,68,2
"1506",7926.84464002,67,3
"1507",7927.84464002,68,3
"1508",7936.84464002,69,3
"1509",7937.84464002,69,3
"1510",7946.84464002,67,3
"1511",7948.84464002,68,3
"1512",7952.84464002,68,3
"1513",7960.84460998,67,3
"1514",7966.84464002,66,3
"1515",7971.84464002,66,3
"1516",7974.84464002,67,3
"1517",7978.84464002,66,3
"1518",7986.84464002,67,3
"1519",7987.84464002,67,3
"1520",7992.84460998,68,3
"1521",8001.84460998,64,3
"1522",8006.84460998,64,3
"1523",8007.84464002,65,3
"1524",8013.84464002,66,3
"1525",8017.84460998,66,3
"1526",8025.84464002,68,3
"1527",8030.84464002,68,3
"1528",8036.84464002,66,3
"1529",8040.84464002,66,3
"1530",8045.84464002,66,3
"1531",8050.84464002,66,3
"1532",8052.84464002,67,3
"1533",8061.84460998,68,3
"1534",8062.84460998,68,3
"1535",8067.84464002,68,3
"1536",8073.84464002,68,3
"1537",8081.84464002,69,3
"1538",8086.84464002,68,3
"1539",8087.84464002,68,3
"1540",8094.84460998,68,3
"1541",8101.84464002,67,3
"1542",8104.84464002,67,3
"1543",8111.84464002,66,3
"1544",8116.84460998,67,3
"1545",8117.84460998,67,3
"1546",8122.84464002,67,3
"1547",8131.84464002,67,3
"1548",8136.84460998,68,3
"1549",8137.84464002,68,3
"1550",8146.84464002,69,3
"1551",8148.84464002,69,3
"1552",8153.84464002,69,3
"1553",8158.84460998,69,3
"1554",8166.84460998,67,3
"1555",8168.84460998,67,3
"1556",8176.84464002,67,3
"1557",8177.84460998,67,3
"1558",8184.84460998,68,3
"1559",8187.84464002,68,3
"1560",8196.84464002,66,3
"1561",8197.84464002,67,3
"1562",8204.84464002,69,3
"1563",8210.84460998,69,3
"1564",8215.84464002,68,3
"1565",8218.84460998,67,3
"1566",8222.84460998,67,3
"1567",8228.84460998,67,3
"1568",8234.84464002,68,3
"1569",8239.84460998,68,3
"1570",8245.84464002,67,3
"1571",8251.84460998,67,3
"1572",8254.84460998,68,3
"1573",8257.84464002,68,3
"1574",8264.84464002,66,3
"1575",8271.84464002,66,3
"1576",8275.84464002,67,3
"1577",8279.84464002,67,3
"1578",8282.84464002,67,3
"1579",8290.84464002,66,3
"1580",8296.84460998,69,3
"1581",8301.84464002,69,3
"1582",8304.84464002,69,3
"1583",8307.84464002,70,3
"1584",8312.84464002,68,3
"1585",8321.84460998,68,3
"1586",8322.84464002,68,3
"1587",8327.84464002,67,3
"1588",8336.84464002,69,3
"1589",8341.84464002,69,3
"1590",8344.84460998,69,3
"1591",8347.84464002,69,3
"1592",8353.84464002,68,3
"1593",8361.84460998,68,3
"1594",8364.84464002,68,3
"1595",8371.84460998,69,3
"1596",8375.84464002,69,3
"1597",8381.84464002,69,3
"1598",8383.84460998,69,3
"1599",8388.84464002,68,3
"1600",8395.84464002,67,3
"1601",8397.84460998,68,3
"1602",8402.84460998,67,3
"1603",8410.84464002,67,3
"1604",8416.84464002,69,3
"1605",8417.84464002,69,3
"1606",8423.84464002,69,3
"1607",8430.84464002,70,3
"1608",8435.84460998,70,3
"1609",8439.84460998,70,3
"1610",8443.84460998,69,3
"1611",8448.84460998,68,3
"1612",8452.84464002,68,3
"1613",8457.84464002,67,3
"1614",8466.84464002,67,3
"1615",8469.84464002,67,3
"1616",8473.84464002,68,3
"1617",8481.84460998,67,3
"1618",8486.84464002,68,3
"1619",8487.84460998,68,3
"1620",8493.84464002,69,3
"1621",8500.84464002,69,3
"1622",8503.84460998,69,3
"1623",8507.84464002,68,3
"1624",8516.84464002,66,3
"1625",8519.84464002,66,3
"1626",8526.84464002,68,3
"1627",8527.84464002,68,3
"1628",8533.84464002,68,3
"1629",8539.84464002,68,3
"1630",8545.84464002,67,3
"1631",8550.84460998,67,3
"1632",8554.84460998,68,3
"1633",8561.84464002,68,3
"1634",8562.84464002,68,3
"1635",8570.84460998,66,3
"1636",8574.84464002,66,3
"1637",8581.84464002,67,3
"1638",8582.84464002,67,3
"1639",8590.84464002,67,3
"1640",8592.84464002,68,3
"1641",8601.84460998,65,3
"1642",8603.84460998,66,3
"1643",8607.84464002,67,3
"1644",8616.84464002,75,2
"1645",8620.84464002,76,2
"1646",8624.84460998,79,2
"1647",8630.84464002,84,2
"1648",8635.84464002,81,2
"1649",8637.84460998,80,2
"1650",8642.84464002,77,2
"1651",8651.84464002,70,2
"1652",8652.84460998,70,2
"1653",8661.84464002,66,2
"1654",8662.84464002,66,2
"1655",8671.84464002,64,2
"1656",8675.84464002,64,2
"1657",8678.84464002,65,2
"1658",8684.84464002,66,2
"1659",8690.84464002,66,2
"1660",8696.84464002,68,2
"1661",8701.84464002,67,2
"1662",8702.84460998,66,2
"1663",8708.84464002,65,2
"1664",8716.84464002,64,2
"1665",8717.84464002,64,2
"1666",8722.84460998,65,2
"1667",8728.84460998,64,2
"1668",8735.84460998,65,2
"1669",8739.84464002,66,2
"1670",8744.84464002,66,2
"1671",8750.84464002,65,2
"1672",8753.84464002,66,2
"1673",8757.84464002,65,2
"1674",8764.84464002,64,2
"1675",8770.84460998,64,2
"1676",8776.84464002,64,2
"1677",8780.84464002,64,2
"1678",8786.84460998,64,2
"1679",8788.84464002,65,2
"1680",8794.84460998,65,2
"1681",8800.84464002,65,2
"1682",8803.84460998,64,2
"1683",8809.84464002,65,2
"1684",8814.84464002,64,2
"1685",8817.84464002,64,2
"1686",8823.84460998,65,2
"1687",8830.84460998,64,2
"1688",8832.84460998,63,2
"1689",8841.84464002,63,2
"1690",8842.84464002,63,2
"1691",8850.84464002,64,2
"1692",8855.84464002,65,2
"1693",8861.84460998,65,2
"1694",8862.84464002,66,2
"1695",8868.84460998,66,2
"1696",8873.84464002,65,2
"1697",8881.84464002,64,2
"1698",8886.84464002,64,2
"1699",8888.84464002,64,2
"1700",8892.84460998,64,2
"1701",8899.84464002,65,2
"1702",8905.84460998,66,2
"1703",8908.84460998,66,2
"1704",8912.84464002,66,2
"1705",8917.84460998,66,2
"1706",8923.84460998,67,2
"1707",8929.84460998,68,2
"1708",8932.84464002,67,2
"1709",8939.84464002,66,2
"1710",8946.84464002,66,2
"1711",8951.84464002,65,2
"1712",8956.84464002,65,2
"1713",8959.84460998,66,2
"1714",8965.84464002,66,2
"1715",8969.84464002,66,2
"1716",8972.84464002,67,2
"1717",8977.84464002,67,2
"1718",8984.84460998,67,2
"1719",8990.84460998,66,2
"1720",8994.84464002,67,2
"1721",8999.84464002,67,2
"1722",9004.84464002,66,2
"1723",9011.84460998,66,2
"1724",9013.84464002,66,2
"1725",9021.84460998,67,2
"1726",9026.84464002,67,2
"1727",9029.84460998,67,2
"1728",9035.84460998,67,2
"1729",9037.84464002,67,2
"1730",9045.84464002,66,2
"1731",9049.84460998,66,2
"1732",9052.84464002,67,2
"1733",9061.84464002,67,2
"1734",9063.84460998,67,2
"1735",9071.84464002,65,2
"1736",9074.84460998,65,2
"1737",9078.84464002,66,2
"1738",9086.84460998,65,2
"1739",9089.84464002,66,2
"1740",9095.84464002,66,2
"1741",9098.84464002,66,2
"1742",9104.84316993,66,2
"1743",9110.84316993,65,2
"1744",9116.84316993,65,2
"1745",9117.84316993,65,2
"1746",9125.84316993,66,2
"1747",9128.84316993,66,2
"1748",9135.84316993,65,2
"1749",9141.84316993,65,2
"1750",9146.84316993,65,2
"1751",9151.84316993,66,2
"1752",9152.84316993,66,2
"1753",9159.84316993,66,2
"1754",9163.84316993,66,2
"1755",9167.84313989,67,2
"1756",9175.84316993,66,2
"1757",9177.84316993,66,2
"1758",9185.84313989,65,2
"1759",9191.84316993,65,2
"1760",9195.84316993,66,2
"1761",9200.84316993,66,2
"1762",9202.84313989,66,2
"1763",9209.84313989,66,2
"1764",9215.84316993,67,2
"1765",9217.84316993,67,2
"1766",9226.84316993,67,2
"1767",9229.84316993,68,2
"1768",9232.84316993,68,2
"1769",9237.84313989,67,2
"1770",9243.84313989,68,2
"1771",9251.84316993,66,2
"1772",9254.84313989,66,2
"1773",9260.84316993,66,2
"1774",9266.84316993,65,2
"1775",9271.84316993,65,2
"1776",9276.84316993,65,2
"1777",9277.84316993,65,2
"1778",9282.84316993,66,2
"1779",9287.84316993,67,2
"1780",9292.84316993,66,2
"1781",9300.84316993,64,2
"1782",9304.84316993,65,2
"1783",9307.84316993,65,2
"1784",9316.84313989,66,2
"1785",9317.84313989,66,2
"1786",9325.84316993,66,2
"1787",9328.84316993,66,2
"1788",9332.84313989,67,2
"1789",9341.84316993,65,2
"1790",9345.84316993,65,2
"1791",9349.84316993,65,2
"1792",9353.84316993,65,2
"1793",9357.84316993,66,2
"1794",9362.84316993,69,2
"1795",9369.84316993,70,2
"1796",9376.84316993,76,2
"1797",9380.84313989,77,2
"1798",9382.84313989,76,2
"1799",9389.84316993,71,2
"1800",9396.84316993,67,2
"1801",9401.84313989,65,2
"1802",9406.84313989,65,2
"1803",9411.84316993,65,2
"1804",9414.84313989,65,2
"1805",9421.84316993,64,2
"1806",9423.84316993,64,2
"1807",9430.84316993,67,2
"1808",9432.84316993,67,2
"1809",9441.84313989,65,2
"1810",9443.84316993,65,2
"1811",9447.84313989,65,2
"1812",9456.84316993,63,2
"1813",9460.84316993,63,2
"1814",9465.84313989,63,2
"1815",9469.84316993,63,2
"1816",9474.84316993,64,2
"1817",9477.84316993,65,2
"1818",9486.84316993,62,2
"1819",9491.84316993,62,2
"1820",9492.84316993,62,2
"1821",9498.84316993,63,2
"1822",9506.84316993,64,2
"1823",9508.84316993,64,2
"1824",9512.84316993,64,2
"1825",9521.84316993,64,2
"1826",9522.84316993,64,2
"1827",9529.84316993,63,2
"1828",9536.84313989,64,2
"1829",9540.84316993,64,2
"1830",9546.84313989,64,2
"1831",9548.84316993,64,2
"1832",9552.84313989,64,2
"1833",9561.84313989,63,2
"1834",9563.84316993,63,2
"1835",9568.84313989,64,2
"1836",9573.84313989,64,2
"1837",9581.84313989,65,2
"1838",9582.84316993,65,2
"1839",9588.84316993,65,2
"1840",9595.84316993,63,2
"1841",9601.84316993,63,2
"1842",9602.84316993,63,2
"1843",9608.84313989,63,2
"1844",9613.84313989,63,2
"1845",9620.84313989,64,2
"1846",9622.84316993,64,2
"1847",9627.84313989,63,2
"1848",9633.84316993,63,2
"1849",9641.84316993,65,2
"1850",9642.84316993,66,2
"1851",9651.84316993,63,2
"1852",9656.84316993,63,2
"1853",9658.84316993,63,2
"1854",9666.84313989,64,2
"1855",9667.84313989,64,2
"1856",9676.84313989,62,2
"1857",9678.84316993,62,2
"1858",9683.84316993,62,2
"1859",9691.84316993,61,2
"1860",9692.84316993,62,2
"1861",9701.84316993,63,2
"1862",9704.84316993,63,2
"1863",9710.84316993,64,2
"1864",9715.84316993,64,2
"1865",9717.84316993,64,2
"1866",9725.84316993,64,2
"1867",9727.84316993,64,2
"1868",9736.84313989,63,2
"1869",9737.84316993,64,2
"1870",9742.84316993,64,2
"1871",9751.84316993,62,2
"1872",9755.84313989,62,2
"1873",9761.84316993,63,2
"1874",9766.84316993,63,2
"1875",9770.84313989,63,2
"1876",9775.84313989,63,2
"1877",9781.84316993,63,2
"1878",9782.84316993,63,2
"1879",9791.84316993,63,2
"1880",9792.84316993,63,2
"1881",9798.84316993,63,2
"1882",9802.84316993,62,2
"1883",9811.84316993,63,2
"1884",9816.84313989,64,2
"1885",9820.84316993,65,2
"1886",9823.84313989,65,2
"1887",9828.84313989,66,2
"1888",9833.84316993,66,2
"1889",9838.84316993,64,2
"1890",9842.84313989,64,2
"1891",9851.84316993,63,2
"1892",9852.84316993,63,2
"1893",9858.84316993,64,2
"1894",9866.84316993,64,2
"1895",9870.84316993,65,2
"1896",9872.84313989,65,2
"1897",9878.84313989,65,2
"1898",9886.84313989,65,2
"1899",9891.84313989,65,2
"1900",9892.84313989,65,2
"1901",9901.84313989,64,2
"1902",9903.84316993,65,2
"1903",9907.84316993,65,2
"1904",9916.84316993,65,2
"1905",9919.84313989,66,2
"1906",9923.84313989,66,2
"1907",9927.84316993,65,2
"1908",9936.84313989,64,2
"1909",9937.84316993,64,2
"1910",9944.84316993,62,2
"1911",9948.84313989,63,2
"1912",9953.84316993,63,2
"1913",9957.84316993,63,2
"1914",9966.84316993,65,2
"1915",9969.84316993,65,2
"1916",9972.84316993,66,2
"1917",9980.84313989,66,2
"1918",9982.84316993,65,2
"1919",9991.84316993,63,2
"1920",9996.84313989,63,2
"1921",9997.84313989,63,2
"1922",10006.8431399,64,2
"1923",10010.8431699,64,2
"1924",10014.8431699,64,2
"1925",10021.8431699,65,2
"1926",10022.8431399,65,2
"1927",10031.8431699,62,2
"1928",10036.8431699,63,2
"1929",10039.8431699,63,2
"1930",10046.8431699,64,2
"1931",10047.8431699,64,2
"1932",10054.8431399,64,2
"1933",10057.8431699,64,2
"1934",10064.8431399,63,2
"1935",10070.8431699,63,2
"1936",10075.8431699,62,2
"1937",10081.8431699,63,3
"1938",10083.8431399,64,3
"1939",10090.8431699,63,3
"1940",10095.8431699,63,3
"1941",10099.8431399,64,3
"1942",10104.8431399,64,3
"1943",10110.8431399,62,3
"1944",10114.8431699,62,3
"1945",10120.8431399,62,3
"1946",10123.8431399,62,3
"1947",10129.8431699,62,3
"1948",10133.8431399,63,3
"1949",10137.8431699,62,3
"1950",10143.8431399,62,3
"1951",10149.8431699,63,3
"1952",10154.8431399,63,3
"1953",10160.8431699,63,3
"1954",10163.8431399,63,3
"1955",10167.8431699,63,3
"1956",10174.8431399,64,3
"1957",10179.8431399,63,3
"1958",10184.8431699,64,3
"1959",10189.8431399,64,3
"1960",10192.8431699,64,3
"1961",10201.8431399,62,3
"1962",10202.8431699,62,3
"1963",10207.8431699,62,3
"1964",10214.8431699,64,3
"1965",10220.8431699,63,3
"1966",10225.8431399,62,3
"1967",10229.8431699,62,3
"1968",10232.8431399,62,3
"1969",10241.8431399,63,3
"1970",10244.8431699,62,3
"1971",10248.8431699,62,3
"1972",10256.8431399,61,3
"1973",10257.8431399,61,3
"1974",10264.8431699,61,3
"1975",10271.8431399,63,3
"1976",10272.8431699,63,3
"1977",10279.8431699,63,3
"1978",10285.8431699,65,3
"1979",10290.8431699,64,3
"1980",10295.8431699,64,3
"1981",10300.8431399,63,3
"1982",10306.8431699,64,3
"1983",10307.8431699,64,3
"1984",10316.8431699,63,3
"1985",10319.8431699,64,3
"1986",10323.8431699,64,3
"1987",10328.8431699,65,3
"1988",10336.8431699,63,3
"1989",10338.8431699,63,3
"1990",10346.8431399,64,3
"1991",10347.8431699,64,3
"1992",10356.8431699,62,3
"1993",10358.8431399,63,3
"1994",10366.8431699,64,3
"1995",10367.8431399,64,3
"1996",10375.8431699,64,3
"1997",10380.8431399,65,3
"1998",10386.8431699,65,3
"1999",10390.8431399,65,3
"2000",10393.8431399,65,3
"2001",10399.8431699,65,3
"2002",10404.8431699,64,3
"2003",10411.8431399,64,3
"2004",10414.8431399,65,3
"2005",10420.8431699,65,3
"2006",10423.8431399,65,3
"2007",10429.8431699,65,3
"2008",10432.8431699,64,3
"2009",10439.8431699,64,3
"2010",10446.8431699,63,3
"2011",10448.8431699,63,3
"2012",10453.8431699,63,3
"2013",10458.8431699,64,3
"2014",10462.8431699,64,3
"2015",10468.8431699,64,3
"2016",10476.8431699,63,3
"2017",10480.8431699,64,3
"2018",10485.8431699,64,3
"2019",10488.8431699,65,3
"2020",10495.8431699,65,3
"2021",10500.8431699,64,3
"2022",10502.8431399,64,3
"2023",10511.8431699,63,3
"2024",10516.8431699,64,3
"2025",10521.8431699,64,3
"2026",10524.8431399,64,3
"2027",10527.8431699,65,3
"2028",10536.8431699,63,3
"2029",10541.8431699,63,3
"2030",10542.8431399,64,3
"2031",10551.8431699,62,3
"2032",10555.8431399,62,3
"2033",10561.8431699,64,3
"2034",10566.8431699,64,3
"2035",10571.8431699,64,3
"2036",10572.8431699,64,3
"2037",10581.8431699,63,3
"2038",10585.8431399,64,3
"2039",10590.8431699,64,3
"2040",10596.8431399,64,3
"2041",10598.8431399,64,3
"2042",10602.8431699,64,3
"2043",10607.8431699,64,3
"2044",10613.8431699,65,3
"2045",10621.8431699,63,3
"2046",10626.8431699,63,3
"2047",10628.8431699,64,3
"2048",10636.8431699,64,3
"2049",10637.8431399,64,3
"2050",10642.8431699,64,3
"2051",10651.8431699,63,3
"2052",10652.8431699,63,3
"2053",10658.8431699,63,3
"2054",10663.8431699,63,3
"2055",10668.8431399,61,3
"2056",10672.8431699,61,3
"2057",10680.8431699,59,3
"2058",10686.8431399,59,3
"2059",10687.8431699,59,3
"2060",10692.8431399,61,3
"2061",10697.8431699,62,3
"2062",10705.8431699,63,3
"2063",10708.8431399,62,3
"2064",10714.8431699,62,3
"2065",10720.8431399,61,3
"2066",10726.8431399,62,3
"2067",10727.8431699,62,3
"2068",10734.8431699,62,3
"2069",10739.8431699,63,3
"2070",10746.8431699,64,3
"2071",10747.8431399,64,3
"2072",10752.8431699,63,3
"2073",10759.8431699,63,3
"2074",10764.8431699,62,3
"2075",10767.8431699,62,3
"2076",10775.8431699,60,3
"2077",10777.8431699,61,3
"2078",10782.8431699,64,3
"2079",10791.8431399,61,3
"2080",10795.8431699,61,3
"2081",10799.8431699,60,3
"2082",10805.8431699,62,3
"2083",10807.8431399,62,3
"2084",10813.8431699,61,3
"2085",10821.8431399,62,3
"2086",10822.8431699,62,3
"2087",10831.8431699,62,3
"2088",10832.8431399,62,3
"2089",10837.8431399,62,3
"2090",10843.8431699,63,3
"2091",10847.8431699,63,3
"2092",10856.8431399,63,3
"2093",10861.8431399,62,3
"2094",10863.8431399,62,3
"2095",10868.8431399,63,3
"2096",10876.8431699,64,3
"2097",10878.8431699,63,3
"2098",10883.8431399,64,3
"2099",10891.8431699,62,3
"2100",10895.8431399,62,3
"2101",10899.8431399,62,3
"2102",10902.8431399,62,3
"2103",10907.8431399,63,3
"2104",10915.8431399,64,3
"2105",10917.8431699,64,3
"2106",10922.8431699,65,3
"2107",10931.8431699,61,3
"2108",10936.8431699,62,3
"2109",10937.8431699,62,3
"2110",10946.8431699,60,3
"2111",10947.8431699,60,3
"2112",10956.8431399,63,3
"2113",10958.8431699,63,3
"2114",10966.8431699,64,3
"2115",10971.8431699,63,3
"2116",10974.8431399,63,3
"2117",10979.8431699,63,3
"2118",10986.8431699,63,3
"2119",10987.8431699,63,3
"2120",10993.8431399,63,3
"2121",11001.8431699,62,3
"2122",11006.8431699,62,3
"2123",11007.8431699,63,3
"2124",11016.8431699,64,3
"2125",11021.8431399,64,3
"2126",11022.8431699,64,3
"2127",11027.8431399,64,3
"2128",11032.8431399,64,3
"2129",11041.8431399,62,3
"2130",11046.8431399,63,3
"2131",11047.8431699,63,3
"2132",11056.8431399,63,3
"2133",11058.8431699,64,3
"2134",11064.8431399,64,3
"2135",11067.8431399,63,3
"2136",11076.8431699,62,3
"2137",11078.8431699,62,3
"2138",11085.8431399,61,3
"2139",11090.8431399,63,3
"2140",11096.8431699,63,3
"2141",11097.8431699,62,3
"2142",11103.8431399,61,3
"2143",11111.8431399,60,3
"2144",11114.8431699,61,3
"2145",11117.8431699,61,3
"2146",11126.8431699,62,3
"2147",11130.8431699,62,3
"2148",11133.8431699,62,3
"2149",11140.8431699,62,3
"2150",11142.8431699,63,3
"2151",11148.8431699,63,3
"2152",11156.8431699,62,3
"2153",11157.8431699,62,3
"2154",11164.8431699,62,3
"2155",11171.8431699,63,3
"2156",11176.8431399,62,3
"2157",11179.8431699,62,3
"2158",11184.8431699,62,3
"2159",11188.8431399,62,3
"2160",11193.8431699,63,3
"2161",11198.8431699,62,3
"2162",11205.8431399,60,3
"2163",11208.8431399,60,3
"2164",11216.8431699,60,3
"2165",11218.8431699,60,3
"2166",11226.8431699,61,3
"2167",11231.8431699,60,3
"2168",11233.8431399,61,3
"2169",11241.8431399,61,3
"2170",11242.8431399,61,3
"2171",11251.8431399,61,3
"2172",11255.8431699,61,3
"2173",11261.8431699,60,3
"2174",11266.8431399,60,3
"2175",11269.8431699,60,3
"2176",11272.8431399,61,3
"2177",11278.8431699,62,3
"2178",11286.8431699,62,3
"2179",11291.8431699,62,3
"2180",11292.8431699,62,3
"2181",11301.8431699,63,3
"2182",11302.8431699,63,3
"2183",11308.8431699,61,3
"2184",11315.8431699,61,3
"2185",11321.8431399,61,3
"2186",11324.8431699,61,3
"2187",11331.8431699,61,3
"2188",11333.8431399,61,3
"2189",11337.8431699,61,3
"2190",11344.8431699,61,3
"2191",11347.8431699,61,3
"2192",11353.8431699,61,3
"2193",11360.8431699,62,3
"2194",11366.8431399,60,3
"2195",11368.8431399,60,3
"2196",11375.8431699,62,2
"2197",11380.8431699,62,2
"2198",11383.8431399,62,2
"2199",11391.8431699,62,2
"2200",11396.8431699,62,2
"2201",11397.8431399,62,2
"2202",11406.8431699,63,2
"2203",11409.8431699,63,2
"2204",11416.8431399,61,2
"2205",11420.8431399,61,2
"2206",11422.8431699,62,2
"2207",11427.8431399,66,2
"2208",11432.8431699,73,2
"2209",11441.8431699,83,2
"2210",11444.8431699,88,2
"2211",11451.8431399,95,2
"2212",11452.8431699,94,2
"2213",11461.8431699,80,2
"2214",11466.8431399,77,2
"2215",11467.8431699,76,2
"2216",11476.8431399,69,2
"2217",11478.8431699,69,2
"2218",11483.8431399,65,2
"2219",11491.8431699,61,2
"2220",11494.8431699,60,2
"2221",11498.8431699,60,2
"2222",11506.8431699,57,2
"2223",11511.8431399,56,2
"2224",11516.8431399,57,2
"2225",11517.8431699,57,2
"2226",11526.8431699,59,2
"2227",11531.8431699,59,2
"2228",11532.8431399,59,2
"2229",11539.8431699,61,2
"2230",11546.8431699,62,2
"2231",11547.8431399,62,2
"2232",11552.8431699,62,2
"2233",11561.8431399,59,2
"2234",11564.8431699,59,2
"2235",11571.8431699,58,2
"2236",11574.8431399,58,2
"2237",11577.8431399,59,2
"2238",11582.8431699,61,2
"2239",11591.8431699,59,2
"2240",11595.8431699,59,2
"2241",11601.8431699,60,2
"2242",11604.8431699,59,2
"2243",11611.8431699,59,2
"2244",11616.8431699,59,2
"2245",11617.8431699,59,2
"2246",11623.8431699,59,2
"2247",11631.8431399,59,2
"2248",11632.8431399,59,2
"2249",11637.8431399,60,2
"2250",11646.8431399,58,1
"2251",11647.8431399,58,1
"2252",11652.8431399,57,1
"2253",11658.8431399,57,1
"2254",11662.8431399,58,1
"2255",11667.8431399,64,1
"2256",11676.8431699,79,1
"2257",11681.8431699,80,1
"2258",11682.8431399,79,1
"2259",11687.8431699,75,1
"2260",11696.8431399,65,1
"2261",11700.8431699,62,2
"2262",11706.8431699,60,2
"2263",11707.8431699,61,2
"2264",11716.8431699,58,2
"2265",11721.8431699,57,2
"2266",11724.8431399,57,2
"2267",11731.8431399,59,2
"2268",11732.8431699,59,2
"2269",11739.8431399,60,2
"2270",11745.8431399,59,2
"2271",11748.8431399,60,2
"2272",11752.8431699,62,2
"2273",11757.8431399,61,2
"2274",11766.8431399,57,2
"2275",11770.8431699,57,2
"2276",11775.8431699,58,2
"2277",11781.8431699,58,2
"2278",11784.8431699,58,2
"2279",11790.8431699,58,2
"2280",11793.8431699,59,2
"2281",11799.8431399,59,2
"2282",11806.8431699,59,2
"2283",11808.8431399,58,2
"2284",11815.8431699,61,2
"2285",11820.8431399,61,1
"2286",11822.8431699,62,1
"2287",11827.8431699,60,1
"2288",11836.8431399,56,1
"2289",11839.8431399,56,1
"2290",11844.8431699,59,1
"2291",11849.8431699,60,1
"2292",11852.8431399,61,1
"2293",11861.8431699,71,1
"2294",11862.8431699,71,1
"2295",11871.8431699,64,1
"2296",11874.8431699,64,1
"2297",11880.8431399,62,1
"2298",11886.8431699,61,1
"2299",11888.8431399,61,1
"2300",11896.8431699,60,1
"2301",11897.8431699,61,1
"2302",11905.8431699,71,1
"2303",11907.8431699,72,1
"2304",11912.8431699,76,5
"2305",11921.8431699,88,5
"2306",11926.8431399,91,5
"2307",11928.8431699,88,5
"2308",11936.8431699,76,5
"2309",11941.8431699,72,5
"2310",11945.8431699,69,5
"2311",11951.8431699,67,5
"2312",11956.8431399,66,5
"2313",11957.8431699,65,5
"2314",11963.8431399,63,5
"2315",11971.8431399,60,5
"2316",11976.8431699,60,5
"2317",11977.8431699,60,5
"2318",11982.8431699,60,5
"2319",11988.8431399,63,5
"2320",11996.8431699,60,5
"2321",11999.8431699,59,5
"2322",12006.8431699,58,5
"2323",12007.8431699,58,5
"2324",12012.8431699,60,5
"2325",12020.8431699,59,5
"2326",12022.8431699,60,5
"2327",12029.8431399,62,5
"2328",12034.8431699,61,5
"2329",12038.8431699,63,5
"2330",12045.8431399,61,5
"2331",12047.8431399,62,5
"2332",12056.8431699,68,5
"2333",12061.8431699,71,5
"2334",12063.8431699,72,5
"2335",12071.8431699,67,5
"2336",12076.8431399,68,5
"2337",12079.8431699,67,5
"2338",12086.8431399,67,5
"2339",12087.8431699,67,5
"2340",12096.8431399,64,5
"2341",12100.8431399,65,5
"2342",12103.8431699,65,5
"2343",12111.8431699,68,5
"2344",12116.8431699,64,5
"2345",12120.8431699,65,5
"2346",12122.8431399,66,5
"2347",12129.8431399,61,5
"2348",12136.8431699,59,5
"2349",12141.8431399,59,5
"2350",12142.8431699,59,5
"2351",12151.8431699,59,5
"2352",12153.8431699,59,5
"2353",12158.8431699,59,5
"2354",12164.8431699,60,5
"2355",12170.8431399,59,5
"2356",12176.8431699,59,5
"2357",12177.8431399,59,5
"2358",12184.8431699,59,5
"2359",12187.8431399,59,5
"2360",12196.8431699,64,5
"2361",12201.8431399,65,5
"2362",12203.8431399,65,5
"2363",12211.8431699,61,5
"2364",12216.8431699,61,5
"2365",12221.8431699,60,5
"2366",12226.8431699,59,5
"2367",12227.8431699,59,5
"2368",12236.8431399,61,5
"2369",12239.8431399,61,5
"2370",12242.8431699,62,5
"2371",12248.8431399,64,5
"2372",12252.8431399,64,5
"2373",12261.8431699,71,5
"2374",12263.8431399,71,5
"2375",12267.8431699,69,5
"2376",12276.8431699,64,5
"2377",12281.8431699,65,5
"2378",12284.8431699,65,5
"2379",12289.8431699,67,5
"2380",12293.8431699,67,5
"2381",12297.8431699,68,5
"2382",12302.8431399,66,5
"2383",12310.8431699,62,5
"2384",12316.8431699,61,5
"2385",12317.8431699,61,5
"2386",12322.8431399,63,5
"2387",12331.8431399,67,5
"2388",12332.8431699,67,5
"2389",12341.8431699,64,5
"2390",12342.8431699,64,5
"2391",12351.8431699,62,5
"2392",12356.8431699,60,5
"2393",12361.8431399,58,5
"2394",12366.8431699,57,5
"2395",12368.8431699,58,5
"2396",12373.8431699,59,5
"2397",12381.8431699,63,5
"2398",12382.8431399,64,5
"2399",12387.8431699,66,5
"2400",12394.8431699,64,5
"2401",12401.8431699,61,5
"2402",12406.8431399,60,5
"2403",12408.8431399,61,5
"2404",12416.8431699,59,5
"2405",12418.8431699,59,5
"2406",12456.8431399,58,5
"2407",12457.8431699,58,5
"2408",12462.8431699,64,5
"2409",12467.8431699,67,5
"2410",12476.8431699,91,5
"2411",12477.8431699,90,5
"2412",12486.8431699,70,5
"2413",12491.8431699,61,5
"2414",12496.8431399,59,5
"2415",12501.8431699,57,5
"2416",12506.8431699,55,5
"2417",12510.8431699,55,5
"2418",12515.8431699,56,5
"2419",12517.8431699,57,5
"2420",12526.8431399,54,5
"2421",12531.8431699,54,5
"2422",12532.8431699,54,5
"2423",12541.8431399,53,5
"2424",12546.8431699,52,5
"2425",12547.8431699,52,5
"2426",12552.8431699,54,5
"2427",12561.8431699,62,5
"2428",12564.8431699,61,5
"2429",12570.8431699,58,5
"2430",12576.8431699,56,5
"2431",12577.8431399,56,5
"2432",12586.8431699,59,5
"2433",12591.8431699,59,5
"2434",12592.8431399,59,5
"2435",12600.8431699,57,5
"2436",12606.8431699,57,5
"2437",12608.8431699,57,5
"2438",12613.8431699,57,5
"2439",12619.8431699,54,5
"2440",12626.8431699,53,5
"2441",12628.8431699,53,5
"2442",12633.8431699,54,5
"2443",12637.8431399,54,5
"2444",12645.8431699,61,5
"2445",12647.8431699,60,5
"2446",12656.8431699,54,5
"2447",12661.8431699,54,5
"2448",12666.8431699,54,5
"2449",12668.8431399,54,5
"2450",12672.8431399,55,5
"2451",12681.8431699,56,5
"2452",12684.8431699,55,5
"2453",12690.8431699,55,5
"2454",12694.8431399,55,5
"2455",12697.8431699,56,5
"2456",12702.8431699,61,5
"2457",12711.84184,62,5
"2458",12715.8418701,62,5
"2459",12721.8418701,60,5
"2460",12723.84184,60,5
"2461",12727.8418701,61,5
"2462",12734.8418701,59,5
"2463",12738.8418701,58,5
"2464",12746.8418701,53,5
"2465",12751.8418701,52,5
"2466",12756.8418701,53,5
"2467",12757.8418701,53,5
"2468",12763.8418701,55,5
"2469",12767.8418701,56,5
"2470",12776.8418701,60,5
"2471",12781.8418701,61,5
"2472",12786.8418701,60,5
"2473",12791.84184,59,5
"2474",12792.8418701,59,5
"2475",12800.8418701,58,5
"2476",12806.84184,58,5
"2477",12811.8418701,58,5
"2478",12812.8418701,58,5
"2479",12819.8418701,59,5
"2480",12823.8418701,61,5
"2481",12827.84184,62,5
"2482",12832.8418701,63,5
"2483",12841.8418701,74,5
"2484",12846.84184,68,5
"2485",12851.8418701,65,5
"2486",12853.8418701,65,5
"2487",12858.84184,63,5
"2488",12866.8418701,59,5
"2489",12871.8418701,59,5
"2490",12873.8418701,58,5
"2491",12877.8418701,58,5
"2492",12883.8418701,60,5
"2493",12891.84184,55,5
"2494",12896.8418701,54,5
"2495",12901.8418701,54,5
"2496",12902.8418701,54,5
"2497",12911.8418701,55,5
"2498",12913.8418701,55,5
"2499",12920.84184,57,5
"2500",12926.84184,59,5
"2501",12928.8418701,60,5
"2502",12934.8418701,58,5
"2503",12937.8418701,60,5
"2504",12945.8418701,60,5
"2505",12951.8418701,56,5
"2506",12955.8418701,56,5
"2507",12961.84184,54,5
"2508",12966.8418701,54,5
"2509",12971.8418701,54,5
"2510",12972.84184,54,5
"2511",12977.8418701,55,5
"2512",12985.8418701,62,5
"2513",12988.8418701,63,5
"2514",12992.8418701,62,5
"2515",13001.8418701,57,5
"2516",13004.84184,57,5
"2517",13007.8418701,58,5
"2518",13016.8418701,78,5
"2519",13021.8418701,73,5
"2520",13022.84184,72,5
"2521",13030.8418701,65,5
"2522",13036.8418701,61,5
"2523",13041.8418701,59,5
"2524",13046.8418701,59,5
"2525",13050.8418701,59,5
"2526",13054.8418701,57,5
"2527",13060.84184,56,5
"2528",13065.8418701,56,5
"2529",13068.84184,56,5
"2530",13074.8418701,57,5
"2531",13081.84184,57,5
"2532",13082.84184,57,5
"2533",13087.8418701,59,5
"2534",13094.84184,59,5
"2535",13097.8418701,59,5
"2536",13102.84184,62,5
"2537",13111.84184,56,5
"2538",13116.84184,57,5
"2539",13121.8418701,56,5
"2540",13125.84184,56,5
"2541",13127.8418701,56,5
"2542",13132.8418701,56,5
"2543",13141.8418701,57,5
"2544",13143.8418701,57,5
"2545",13148.84184,57,5
"2546",13152.8418701,58,5
"2547",13161.84184,62,5
"2548",13165.8418701,63,5
"2549",13171.8418701,65,1
"2550",13173.8418701,64,1
"2551",13179.8418701,64,1
"2552",13184.8418701,65,1
"2553",13188.8418701,65,1
"2554",13196.84184,71,1
"2555",13197.8418701,70,1
"2556",13232.84184,67,1
"2557",13241.8418701,62,1
"2558",13243.8418701,62,1
"2559",13247.8418701,66,1
"2560",13256.8418701,79,1
"2561",13261.84184,85,5
"2562",13263.8418701,85,5
"2563",13271.84184,71,5
"2564",13276.84184,63,5
"2565",13281.8418701,61,5
"2566",13286.8418701,59,5
"2567",13287.8418701,59,5
"2568",13293.84184,58,5
"2569",13301.8418701,56,5
"2570",13306.8418701,57,5
"2571",13307.8418701,57,5
"2572",13315.8418701,57,5
"2573",13317.8418701,57,5
"2574",13325.8418701,55,5
"2575",13328.8418701,55,5
"2576",13332.8418701,56,5
"2577",13341.8418701,53,5
"2578",13346.8418701,53,5
"2579",13348.84184,53,5
"2580",13354.8418701,52,5
"2581",13357.8418701,53,5
"2582",13366.8418701,59,5
"2583",13369.8418701,58,5
"2584",13372.8418701,59,5
"2585",13381.8418701,55,5
"2586",13386.8418701,56,5
"2587",13388.8418701,56,5
"2588",13396.8418701,57,5
"2589",13400.84184,57,5
"2590",13406.84184,57,5
"2591",13408.8418701,56,5
"2592",13414.8418701,56,5
"2593",13421.84184,54,5
"2594",13424.8418701,54,5
"2595",13427.84184,54,5
"2596",13436.84184,52,5
"2597",13441.84184,53,5
"2598",13442.84184,53,5
"2599",13448.84184,54,5
"2600",13456.8418701,56,5
"2601",13459.8418701,57,5
"2602",13462.84184,57,5
"2603",13467.8418701,57,5
"2604",13472.8418701,58,5
"2605",13477.8418701,60,5
"2606",13486.84184,68,5
"2607",13491.8418701,66,5
"2608",13494.8418701,66,5
"2609",13497.8418701,65,5
"2610",13506.8418701,59,5
"2611",13511.8418701,57,5
"2612",13516.8418701,57,5
"2613",13520.8418701,56,5
"2614",13522.8418701,56,5
"2615",13527.8418701,62,5
"2616",13533.8418701,72,5
"2617",13539.8418701,73,5
"2618",13546.84184,65,5
"2619",13549.84184,63,5
"2620",13554.84184,61,5
"2621",13561.84184,59,5
"2622",13566.8418701,58,5
"2623",13571.8418701,57,5
"2624",13574.8418701,57,5
"2625",13577.8418701,57,5
"2626",13586.8418701,58,5
"2627",13587.8418701,59,5
"2628",13596.8418701,56,5
"2629",13600.8418701,56,5
"2630",13603.8418701,56,5
"2631",13607.8418701,56,5
"2632",13613.8418701,55,5
"2633",13617.8418701,56,5
"2634",13623.8418701,56,5
"2635",13627.8418701,55,5
"2636",13635.84184,57,5
"2637",13641.8418701,58,5
"2638",13644.8418701,57,5
"2639",13649.8418701,57,5
"2640",13653.8418701,57,5
"2641",13659.8418701,57,5
"2642",13662.84184,56,5
"2643",13671.8418701,53,5
"2644",13674.8418701,53,5
"2645",13677.84184,54,5
"2646",13686.84184,58,5
"2647",13687.8418701,58,5
"2648",13692.84184,60,5
"2649",13701.8418701,58,5
"2650",13704.8418701,58,5
"2651",13708.84184,59,5
"2652",13712.8418701,57,5
"2653",13720.84184,53,5
"2654",13726.8418701,52,5
"2655",13731.84184,53,5
"2656",13732.8418701,54,5
"2657",13741.84184,56,5
"2658",13746.8418701,56,5
"2659",13747.8418701,56,5
"2660",13753.8418701,58,5
"2661",13761.8418701,57,5
"2662",13764.8418701,57,5
"2663",13767.84184,58,5
"2664",13805.8418701,59,5
"2665",13810.8418701,65,5
"2666",13814.84184,67,5
"2667",13821.8418701,76,5
"2668",13824.8418701,78,5
"2669",13827.84184,76,5
"2670",13836.84184,62,5
"2671",13841.8418701,59,5
"2672",13846.8418701,57,5
"2673",13851.8418701,56,5
"2674",13856.84184,56,5
"2675",13857.8418701,55,5
"2676",13862.84184,57,5
"2677",13871.8418701,55,5
"2678",13874.8418701,55,5
"2679",13877.8418701,54,5
"2680",13885.8418701,54,5
"2681",13889.8418701,54,5
"2682",13894.8418701,55,5
"2683",13901.8418701,55,5
"2684",13906.8418701,55,5
"2685",13907.8418701,56,5
"2686",13912.8418701,58,5
"2687",13921.84184,58,5
"2688",13922.84184,58,5
"2689",13929.8418701,62,5
"2690",13936.8418701,60,5
"2691",13941.8418701,59,5
"2692",13946.8418701,59,5
"2693",13950.8418701,59,5
"2694",13952.8418701,60,5
"2695",13957.84184,62,5
"2696",13964.84184,61,5
"2697",13967.8418701,60,5
"2698",13976.8418701,56,5
"2699",13981.84184,56,5
"2700",13985.8418701,57,5
"2701",13987.8418701,57,5
"2702",13992.8418701,58,5
"2703",14000.8418701,61,5
"2704",14006.84184,62,5
"2705",14007.84184,62,5
"2706",14013.8418701,62,5
"2707",14021.8418701,65,5
"2708",14026.84184,65,5
"2709",14027.8418701,66,5
"2710",14036.8418701,66,5
"2711",14038.8418701,66,5
"2712",14042.8418701,67,5
"2713",14047.8418701,68,5
"2714",14056.8418701,73,5
"2715",14057.8418701,73,5
"2716",14066.8418701,76,5
"2717",14071.84184,74,1
"2718",14072.8418701,74,1
"2719",14078.8418701,71,1
"2720",14082.8418701,69,1
"2721",14090.8418701,67,1
"2722",14092.8418701,67,1
"2723",14097.8418701,63,1
"2724",14131.8418701,66,1
"2725",14134.8418701,66,1
"2726",14137.8418701,68,1
"2727",14146.8418701,78,1
"2728",14151.84184,79,1
"2729",14152.8418701,79,1
"2730",14161.8418701,73,1
"2731",14165.8418701,71,1
"2732",14167.8418701,71,1
"2733",14176.8418701,66,1
"2734",14179.8418701,66,1
"2735",14182.8418701,66,1
"2736",14191.8418701,61,1
"2737",14193.8418701,61,1
"2738",14201.8418701,59,1
"2739",14202.8418701,59,1
"2740",14209.84184,61,1
"2741",14212.8418701,61,1
"2742",14221.84184,59,1
"2743",NA,NA,NA
"2744",NA,NA,NA
"2745",NA,NA,NA
"2746",NA,NA,NA
"2747",NA,NA,NA
