"time","hr"
0,500.197509765625
4,500.202514648438
8,500.212493896484
12,500.209991455078
16,500.212493896484
20,500.204986572266
24,500.200012207031
28,500.192504882812
32,500.200012207031
36,500.195007324219
40,500.195007324219
44,500.179992675781
48,500.192504882812
52,500.1875
56,500.184997558594
60,500.184997558594
64,500.190002441406
68,500.174987792969
72,500.177490234375
76,500.172485351562
80,500.152496337891
84,500.119995117188
88,500.070007324219
92,499.980010986328
96,499.897491455078
100,499.787506103516
104,499.712493896484
108,499.640014648438
112,499.587493896484
116,499.527496337891
120,499.492492675781
124,499.440002441406
128,499.422485351562
132,499.445007324219
136,499.472503662109
140,499.537506103516
144,499.640014648438
148,499.765014648438
152,499.907501220703
156,500.027496337891
160,500.154998779297
164,500.279998779297
168,500.394989013672
172,500.489990234375
176,500.579986572266
180,500.644989013672
184,500.677490234375
188,500.679992675781
192,500.660003662109
196,500.627502441406
200,500.600006103516
204,500.5625
208,500.510009765625
212,500.480010986328
216,500.450012207031
220,500.422485351562
224,500.390014648438
228,500.347503662109
232,500.299987792969
236,500.267486572266
240,500.239990234375
244,500.232513427734
248,500.225006103516
252,500.230010986328
256,500.252502441406
260,500.260009765625
264,500.290008544922
268,500.304992675781
272,500.3125
276,500.3125
280,500.315002441406
284,500.302490234375
288,500.295013427734
292,500.299987792969
296,500.302490234375
300,500.297485351562
304,500.287506103516
308,500.272491455078
312,500.255004882812
316,500.252502441406
320,500.239990234375
324,500.230010986328
328,500.220001220703
332,500.209991455078
336,500.202514648438
340,500.1875
344,500.184997558594
348,500.165008544922
352,500.154998779297
356,500.147491455078
360,500.130004882812
364,500.125
368,500.114990234375
372,500.109985351562
376,500.109985351562
380,500.089996337891
384,500.079986572266
388,500.084991455078
392,500.070007324219
396,500.070007324219
400,500.0625
404,500.057495117188
408,500.067504882812
412,500.070007324219
416,500.079986572266
420,500.077514648438
424,500.075012207031
428,500.067504882812
432,500.065002441406
436,500.077514648438
440,500.079986572266
444,500.092498779297
448,500.089996337891
452,500.089996337891
456,500.097503662109
460,500.097503662109
464,500.109985351562
468,500.107513427734
472,500.100006103516
476,500.109985351562
480,500.109985351562
484,500.137512207031
488,500.144989013672
492,500.152496337891
496,500.160003662109
500,500.147491455078
504,500.149993896484
508,500.167510986328
512,500.172485351562
516,500.177490234375
520,500.172485351562
524,500.167510986328
528,500.172485351562
532,500.172485351562
536,500.160003662109
540,500.174987792969
544,500.182495117188
548,500.179992675781
552,500.177490234375
556,500.190002441406
560,500.184997558594
564,500.197509765625
568,500.195007324219
572,500.184997558594
576,500.204986572266
580,500.207489013672
584,500.195007324219
588,500.209991455078
592,500.209991455078
596,500.204986572266
600,500.214996337891
604,500.207489013672
608,500.204986572266
612,500.209991455078
616,500.207489013672
620,500.204986572266
624,500.204986572266
628,500.214996337891
632,500.200012207031
636,500.209991455078
640,500.204986572266
644,500.212493896484
648,500.197509765625
652,500.204986572266
656,500.209991455078
660,500.220001220703
664,500.202514648438
668,500.200012207031
672,500.200012207031
676,500.192504882812
680,500.1875
684,500.1875
688,500.192504882812
692,500.195007324219
696,500.207489013672
700,500.220001220703
704,500.232513427734
708,500.237487792969
712,500.234985351562
716,500.232513427734
720,500.227508544922
724,500.230010986328
728,500.230010986328
732,500.227508544922
736,500.214996337891
740,500.204986572266
744,500.207489013672
748,500.192504882812
752,500.207489013672
756,500.202514648438
760,500.204986572266
764,500.204986572266
768,500.214996337891
772,500.222503662109
776,500.227508544922
780,500.207489013672
784,500.195007324219
788,500.184997558594
792,500.182495117188
796,500.184997558594
800,500.182495117188
804,500.177490234375
808,500.162506103516
812,500.167510986328
816,500.160003662109
820,500.160003662109
824,500.162506103516
828,500.170013427734
832,500.167510986328
836,500.162506103516
840,500.157501220703
844,500.170013427734
848,500.177490234375
852,500.174987792969
856,500.160003662109
860,500.152496337891
864,500.160003662109
868,500.160003662109
872,500.172485351562
876,500.172485351562
880,500.154998779297
884,500.149993896484
888,500.147491455078
892,500.127502441406
896,500.087493896484
900,500.037506103516
904,499.972503662109
908,499.885009765625
912,499.827514648438
916,499.790008544922
920,499.747497558594
924,499.707489013672
928,499.670013427734
932,499.630004882812
936,499.600006103516
940,499.587493896484
944,499.622497558594
948,499.674987792969
952,499.760009765625
956,499.864990234375
960,499.994995117188
964,500.135009765625
968,500.265014648438
972,500.387512207031
976,500.484985351562
980,500.579986572266
984,500.652496337891
988,500.714996337891
992,500.75
996,500.75
1000,500.720001220703
1004,500.670013427734
1008,500.600006103516
1012,500.542510986328
1016,500.492492675781
1020,500.442504882812
1024,500.402496337891
1028,500.350006103516
1032,500.309997558594
1036,500.279998779297
1040,500.239990234375
1044,500.214996337891
1048,500.1875
1052,500.165008544922
1056,500.160003662109
1060,500.147491455078
1064,500.154998779297
1068,500.147491455078
1072,500.167510986328
1076,500.177490234375
1080,500.190002441406
1084,500.207489013672
1088,500.209991455078
1092,500.217498779297
1096,500.214996337891
1100,500.195007324219
1104,500.192504882812
1108,500.200012207031
1112,500.179992675781
1116,500.182495117188
1120,500.177490234375
1124,500.162506103516
1128,500.165008544922
1132,500.165008544922
1136,500.149993896484
1140,500.130004882812
1144,500.127502441406
1148,500.112487792969
1152,500.112487792969
1156,500.105010986328
1160,500.089996337891
1164,500.084991455078
1168,500.067504882812
1172,500.065002441406
1176,500.052490234375
1180,500.040008544922
1184,500.019989013672
1188,500.019989013672
1192,500.015014648438
1196,500.012512207031
1200,500.024993896484
1204,500.024993896484
1208,500.027496337891
1212,500.029998779297
1216,500.024993896484
1220,500.019989013672
1224,500.022491455078
1228,500.029998779297
1232,500.027496337891
1236,500.037506103516
1240,500.052490234375
1244,500.045013427734
1248,500.057495117188
1252,500.057495117188
1256,500.059997558594
1260,500.059997558594
1264,500.070007324219
1268,500.084991455078
1272,500.095001220703
1276,500.095001220703
1280,500.109985351562
1284,500.105010986328
1288,500.109985351562
1292,500.117492675781
1296,500.125
1300,500.135009765625
1304,500.142486572266
1308,500.144989013672
1312,500.140014648438
1316,500.147491455078
1320,500.154998779297
1324,500.149993896484
1328,500.149993896484
1332,500.154998779297
1336,500.160003662109
1340,500.182495117188
1344,500.182495117188
1348,500.195007324219
1352,500.204986572266
1356,500.209991455078
1360,500.207489013672
1364,500.195007324219
1368,500.195007324219
1372,500.207489013672
1376,500.204986572266
1380,500.220001220703
1384,500.209991455078
1388,500.222503662109
1392,500.230010986328
1396,500.225006103516
1400,500.220001220703
1404,500.220001220703
1408,500.230010986328
1412,500.222503662109
1416,500.222503662109
1420,500.214996337891
1424,500.209991455078
1428,500.217498779297
1432,500.209991455078
1436,500.214996337891
1440,500.227508544922
1444,500.230010986328
1448,500.222503662109
1452,500.220001220703
1456,500.207489013672
1460,500.209991455078
1464,500.217498779297
1468,500.232513427734
1472,500.225006103516
1476,500.214996337891
1480,500.204986572266
1484,500.200012207031
1488,500.214996337891
1492,500.202514648438
1496,500.207489013672
1500,500.209991455078
1504,500.207489013672
1508,500.222503662109
1512,500.222503662109
1516,500.239990234375
1520,500.234985351562
1524,500.244995117188
1528,500.232513427734
1532,500.230010986328
1536,500.237487792969
1540,500.227508544922
1544,500.227508544922
1548,500.212493896484
1552,500.197509765625
1556,500.192504882812
1560,500.209991455078
1564,500.212493896484
1568,500.227508544922
1572,500.227508544922
1576,500.222503662109
1580,500.214996337891
1584,500.222503662109
1588,500.214996337891
1592,500.209991455078
1596,500.212493896484
1600,500.202514648438
1604,500.204986572266
1608,500.195007324219
1612,500.1875
1616,500.184997558594
1620,500.170013427734
1624,500.172485351562
1628,500.172485351562
1632,500.179992675781
1636,500.190002441406
1640,500.182495117188
1644,500.190002441406
1648,500.182495117188
1652,500.195007324219
1656,500.195007324219
1660,500.197509765625
1664,500.195007324219
1668,500.1875
1672,500.182495117188
1676,500.184997558594
1680,500.200012207031
1684,500.200012207031
1688,500.200012207031
1692,500.200012207031
1696,500.204986572266
1700,500.204986572266
1704,500.174987792969
1708,500.140014648438
1712,500.089996337891
1716,500.005004882812
1720,499.924987792969
1724,499.887512207031
1728,499.869995117188
1732,499.850006103516
1736,499.807495117188
1740,499.762512207031
1744,499.742492675781
1748,499.742492675781
1752,499.760009765625
1756,499.827514648438
1760,499.910003662109
1764,500.010009765625
1768,500.144989013672
1772,500.265014648438
1776,500.380004882812
1780,500.475006103516
1784,500.575012207031
1788,500.670013427734
1792,500.75
1796,500.809997558594
1800,500.857513427734
1804,500.872497558594
1808,500.859985351562
1812,500.8125
1816,500.747497558594
1820,500.692504882812
1824,500.627502441406
1828,500.565002441406
1832,500.519989013672
1836,500.462493896484
1840,500.424987792969
1844,500.362487792969
1848,500.329986572266
1852,500.290008544922
1856,500.252502441406
1860,500.214996337891
1864,500.192504882812
1868,500.179992675781
1872,500.179992675781
1876,500.1875
1880,500.179992675781
1884,500.192504882812
1888,500.209991455078
1892,500.220001220703
1896,500.225006103516
1900,500.207489013672
1904,500.204986572266
1908,500.200012207031
1912,500.200012207031
1916,500.195007324219
1920,500.190002441406
1924,500.167510986328
1928,500.162506103516
1932,500.147491455078
1936,500.130004882812
1940,500.130004882812
1944,500.117492675781
1948,500.102508544922
1952,500.092498779297
1956,500.087493896484
1960,500.092498779297
1964,500.077514648438
1968,500.059997558594
1972,500.049987792969
1976,500.032501220703
1980,500.027496337891
1984,500.019989013672
1988,500.019989013672
1992,500.007507324219
1996,500.017486572266
2000,500.005004882812
2004,500.002502441406
2008,500.007507324219
2012,500.019989013672
2016,500.032501220703
2020,500.035003662109
2024,500.035003662109
2028,500.019989013672
2032,500.022491455078
2036,500.032501220703
2040,500.047485351562
2044,500.052490234375
2048,500.0625
2052,500.075012207031
2056,500.075012207031
2060,500.077514648438
2064,500.100006103516
2068,500.102508544922
2072,500.107513427734
2076,500.109985351562
2080,500.114990234375
2084,500.127502441406
2088,500.152496337891
2092,500.184997558594
2096,500.182495117188
2100,500.182495117188
2104,500.190002441406
2108,500.200012207031
2112,500.207489013672
2116,500.204986572266
2120,500.212493896484
2124,500.207489013672
2128,500.209991455078
2132,500.217498779297
2136,500.232513427734
2140,500.230010986328
2144,500.222503662109
2148,500.225006103516
2152,500.214996337891
2156,500.227508544922
2160,500.222503662109
2164,500.232513427734
2168,500.230010986328
2172,500.222503662109
2176,500.222503662109
2180,500.220001220703
2184,500.230010986328
2188,500.230010986328
2192,500.232513427734
2196,500.232513427734
2200,500.230010986328
2204,500.227508544922
2208,500.237487792969
2212,500.234985351562
2216,500.230010986328
2220,500.225006103516
2224,500.225006103516
2228,500.237487792969
2232,500.239990234375
2236,500.239990234375
2240,500.242492675781
2244,500.234985351562
2248,500.234985351562
2252,500.225006103516
2256,500.234985351562
2260,500.237487792969
2264,500.230010986328
2268,500.212493896484
2272,500.204986572266
2276,500.209991455078
2280,500.209991455078
2284,500.204986572266
2288,500.212493896484
2292,500.212493896484
2296,500.217498779297
2300,500.204986572266
2304,500.212493896484
2308,500.214996337891
2312,500.230010986328
2316,500.242492675781
2320,500.255004882812
2324,500.242492675781
2328,500.252502441406
2332,500.257507324219
2336,500.267486572266
2340,500.255004882812
2344,500.252502441406
2348,500.25
2352,500.239990234375
2356,500.232513427734
2360,500.225006103516
2364,500.209991455078
2368,500.209991455078
2372,500.212493896484
2376,500.230010986328
2380,500.232513427734
2384,500.247497558594
2388,500.239990234375
2392,500.230010986328
2396,500.234985351562
2400,500.234985351562
2404,500.239990234375
2408,500.230010986328
2412,500.214996337891
2416,500.200012207031
2420,500.204986572266
2424,500.204986572266
2428,500.207489013672
2432,500.212493896484
2436,500.209991455078
2440,500.207489013672
2444,500.217498779297
2448,500.227508544922
2452,500.212493896484
2456,500.197509765625
2460,500.1875
2464,500.184997558594
2468,500.197509765625
2472,500.202514648438
2476,500.190002441406
2480,500.190002441406
2484,500.182495117188
2488,500.179992675781
2492,500.174987792969
2496,500.1875
2500,500.184997558594
2504,500.179992675781
2508,500.165008544922
2512,500.149993896484
2516,500.112487792969
2520,500.065002441406
2524,500.005004882812
2528,499.922485351562
2532,499.842498779297
2536,499.802490234375
2540,499.782501220703
2544,499.757507324219
2548,499.720001220703
2552,499.6875
2556,499.654998779297
2560,499.649993896484
2564,499.684997558594
2568,499.730010986328
2572,499.8125
2576,499.912506103516
2580,500.019989013672
2584,500.140014648438
2588,500.265014648438
2592,500.377502441406
2596,500.5
2600,500.602508544922
2604,500.709991455078
2608,500.785003662109
2612,500.862487792969
2616,500.894989013672
2620,500.894989013672
2624,500.855010986328
2628,500.804992675781
2632,500.755004882812
2636,500.695007324219
2640,500.640014648438
2644,500.584991455078
2648,500.535003662109
2652,500.462493896484
2656,500.412506103516
2660,500.357513427734
2664,500.317504882812
2668,500.279998779297
2672,500.255004882812
2676,500.230010986328
2680,500.212493896484
2684,500.220001220703
2688,500.227508544922
2692,500.239990234375
2696,500.247497558594
2700,500.269989013672
2704,500.269989013672
2708,500.272491455078
2712,500.265014648438
2716,500.255004882812
2720,500.255004882812
2724,500.257507324219
2728,500.244995117188
2732,500.239990234375
2736,500.242492675781
2740,500.232513427734
2744,500.217498779297
2748,500.202514648438
2752,500.1875
2756,500.179992675781
2760,500.184997558594
2764,500.170013427734
2768,500.147491455078
2772,500.144989013672
2776,500.137512207031
2780,500.130004882812
2784,500.114990234375
2788,500.100006103516
2792,500.092498779297
2796,500.077514648438
2800,500.075012207031
2804,500.075012207031
2808,500.077514648438
2812,500.077514648438
2816,500.0625
2820,500.052490234375
2824,500.047485351562
2828,500.040008544922
2832,500.054992675781
2836,500.057495117188
2840,500.059997558594
2844,500.059997558594
2848,500.065002441406
2852,500.054992675781
2856,500.047485351562
2860,500.054992675781
2864,500.059997558594
2868,500.052490234375
2872,500.067504882812
2876,500.070007324219
2880,500.070007324219
2884,500.072509765625
2888,500.087493896484
2892,500.095001220703
2896,500.119995117188
2900,500.137512207031
2904,500.152496337891
2908,500.154998779297
2912,500.160003662109
2916,500.160003662109
2920,500.172485351562
2924,500.170013427734
2928,500.157501220703
2932,500.152496337891
2936,500.144989013672
2940,500.152496337891
2944,500.162506103516
2948,500.177490234375
2952,500.192504882812
2956,500.190002441406
2960,500.179992675781
2964,500.162506103516
2968,500.1875
2972,500.182495117188
2976,500.200012207031
2980,500.222503662109
2984,500.237487792969
2988,500.244995117188
2992,500.244995117188
2996,500.260009765625
3000,500.252502441406
3004,500.252502441406
3008,500.244995117188
3012,500.247497558594
3016,500.234985351562
3020,500.230010986328
3024,500.247497558594
3028,500.255004882812
3032,500.247497558594
3036,500.247497558594
3040,500.237487792969
3044,500.237487792969
3048,500.227508544922
3052,500.242492675781
3056,500.232513427734
3060,500.225006103516
3064,500.220001220703
3068,500.209991455078
3072,500.204986572266
3076,500.207489013672
3080,500.190002441406
3084,500.182495117188
3088,500.195007324219
3092,500.220001220703
3096,500.247497558594
3100,500.25
3104,500.237487792969
3108,500.220001220703
3112,500.217498779297
3116,500.234985351562
3120,500.244995117188
3124,500.239990234375
3128,500.234985351562
3132,500.239990234375
3136,500.230010986328
3140,500.244995117188
3144,500.242492675781
3148,500.239990234375
3152,500.230010986328
3156,500.225006103516
3160,500.225006103516
3164,500.227508544922
3168,500.242492675781
3172,500.255004882812
3176,500.242492675781
3180,500.232513427734
3184,500.217498779297
3188,500.204986572266
3192,500.200012207031
3196,500.204986572266
3200,500.220001220703
3204,500.237487792969
3208,500.234985351562
3212,500.237487792969
3216,500.212493896484
3220,500.195007324219
3224,500.174987792969
3228,500.162506103516
3232,500.172485351562
3236,500.182495117188
3240,500.162506103516
3244,500.165008544922
3248,500.154998779297
3252,500.142486572266
3256,500.149993896484
3260,500.142486572266
3264,500.144989013672
3268,500.149993896484
3272,500.160003662109
3276,500.162506103516
3280,500.157501220703
3284,500.147491455078
3288,500.132507324219
3292,500.127502441406
3296,500.117492675781
3300,500.119995117188
3304,500.125
3308,500.117492675781
3312,500.112487792969
3316,500.114990234375
3320,500.119995117188
3324,500.105010986328
3328,500.097503662109
3332,500.097503662109
3336,500.0625
3340,500.010009765625
3344,499.947509765625
3348,499.864990234375
3352,499.779998779297
3356,499.725006103516
3360,499.677490234375
3364,499.617492675781
3368,499.572509765625
3372,499.515014648438
3376,499.457489013672
3380,499.429992675781
3384,499.427490234375
3388,499.459991455078
3392,499.515014648438
3396,499.595001220703
3400,499.720001220703
3404,499.839996337891
3408,499.954986572266
3412,500.070007324219
3416,500.190002441406
3420,500.317504882812
3424,500.420013427734
3428,500.522491455078
3432,500.597503662109
3436,500.637512207031
3440,500.647491455078
3444,500.632507324219
3448,500.609985351562
3452,500.584991455078
3456,500.535003662109
3460,500.477508544922
3464,500.432495117188
3468,500.397491455078
3472,500.364990234375
3476,500.325012207031
3480,500.279998779297
3484,500.242492675781
3488,500.220001220703
3492,500.202514648438
3496,500.1875
3500,500.182495117188
3504,500.184997558594
3508,500.200012207031
3512,500.217498779297
3516,500.232513427734
3520,500.260009765625
3524,500.260009765625
3528,500.282501220703
3532,500.290008544922
3536,500.302490234375
3540,500.302490234375
3544,500.304992675781
3548,500.307495117188
3552,500.297485351562
3556,500.299987792969
3560,500.297485351562
3564,500.290008544922
3568,500.274993896484
3572,500.265014648438
3576,500.265014648438
3580,500.257507324219
3584,500.260009765625
3588,500.247497558594
3592,500.247497558594
3596,500.239990234375
3600,500.230010986328
3604,500.207489013672
3608,500.212493896484
3612,500.200012207031
3616,500.197509765625
3620,500.1875
3624,500.170013427734
3628,500.149993896484
3632,500.147491455078
3636,500.154998779297
3640,500.152496337891
3644,500.149993896484
3648,500.135009765625
3652,500.114990234375
3656,500.109985351562
3660,500.107513427734
3664,500.107513427734
3668,500.097503662109
3672,500.102508544922
3676,500.087493896484
3680,500.097503662109
3684,500.089996337891
3688,500.084991455078
3692,500.092498779297
3696,500.084991455078
3700,500.070007324219
3704,500.052490234375
3708,500.065002441406
3712,500.059997558594
3716,500.077514648438
3720,500.077514648438
3724,500.065002441406
3728,500.067504882812
3732,500.070007324219
3736,500.084991455078
3740,500.095001220703
3744,500.087493896484
3748,500.077514648438
3752,500.084991455078
3756,500.095001220703
3760,500.102508544922
3764,500.102508544922
3768,500.097503662109
3772,500.095001220703
3776,500.112487792969
3780,500.107513427734
3784,500.114990234375
3788,500.119995117188
3792,500.135009765625
3796,500.119995117188
3800,500.114990234375
3804,500.119995117188
3808,500.137512207031
3812,500.144989013672
3816,500.144989013672
3820,500.140014648438
3824,500.149993896484
3828,500.154998779297
3832,500.172485351562
3836,500.167510986328
3840,500.174987792969
3844,500.177490234375
3848,500.177490234375
3852,500.190002441406
3856,500.190002441406
3860,500.1875
3864,500.172485351562
3868,500.162506103516
3872,500.167510986328
3876,500.167510986328
3880,500.172485351562
3884,500.170013427734
3888,500.179992675781
3892,500.167510986328
3896,500.160003662109
3900,500.170013427734
3904,500.170013427734
3908,500.184997558594
3912,500.179992675781
3916,500.177490234375
3920,500.172485351562
3924,500.170013427734
3928,500.172485351562
3932,500.182495117188
3936,500.182495117188
3940,500.174987792969
3944,500.179992675781
3948,500.167510986328
3952,500.170013427734
3956,500.177490234375
3960,500.182495117188
3964,500.184997558594
3968,500.184997558594
3972,500.177490234375
3976,500.182495117188
3980,500.1875
3984,500.1875
3988,500.172485351562
3992,500.170013427734
3996,500.165008544922
4000,500.154998779297
4003,500.167510986328
4008,500.165008544922
4011,500.174987792969
4016,500.170013427734
4019,500.167510986328
4024,500.172485351562
4027,500.165008544922
4032,500.162506103516
4035,500.165008544922
4040,500.157501220703
4043,500.162506103516
4048,500.160003662109
4051,500.144989013672
4056,500.137512207031
4059,500.147491455078
4064,500.147491455078
4067,500.152496337891
4072,500.152496337891
4075,500.160003662109
4080,500.165008544922
4083,500.154998779297
4088,500.154998779297
4091,500.149993896484
4096,500.149993896484
4100,500.142486572266
4104,500.149993896484
4108,500.142486572266
4112,500.137512207031
4116,500.137512207031
4120,500.147491455078
4124,500.152496337891
4128,500.154998779297
4132,500.165008544922
4136,500.140014648438
4140,500.127502441406
4144,500.112487792969
4148,500.095001220703
4152,500.049987792969
4156,499.982513427734
4160,499.892486572266
4164,499.802490234375
4168,499.717498779297
4172,499.654998779297
4176,499.609985351562
4180,499.557495117188
4184,499.494995117188
4188,499.434997558594
4192,499.394989013672
4196,499.382507324219
4200,499.392486572266
4204,499.427490234375
4208,499.5
4212,499.600006103516
4216,499.712493896484
4220,499.829986572266
4224,499.952514648438
4228,500.070007324219
4232,500.190002441406
4236,500.297485351562
4240,500.407501220703
4244,500.505004882812
4248,500.600006103516
4252,500.660003662109
4256,500.667510986328
4260,500.662506103516
4264,500.642486572266
4268,500.627502441406
4272,500.592498779297
4276,500.549987792969
4280,500.517486572266
4284,500.477508544922
4288,500.442504882812
4292,500.390014648438
4296,500.342498779297
4300,500.3125
4304,500.292510986328
4308,500.267486572266
4312,500.244995117188
4316,500.225006103516
4320,500.230010986328
4324,500.247497558594
4328,500.255004882812
4332,500.274993896484
4336,500.304992675781
4340,500.317504882812
4344,500.317504882812
4348,500.325012207031
4352,500.327514648438
4356,500.309997558594
4360,500.315002441406
4364,500.304992675781
4368,500.302490234375
4372,500.292510986328
4376,500.292510986328
4380,500.274993896484
4384,500.269989013672
4388,500.262512207031
4392,500.237487792969
4396,500.220001220703
4400,500.207489013672
4404,500.197509765625
4408,500.1875
4412,500.184997558594
4416,500.177490234375
4420,500.165008544922
4424,500.154998779297
4428,500.149993896484
4432,500.147491455078
4436,500.127502441406
4440,500.112487792969
4444,500.107513427734
4448,500.100006103516
4452,500.089996337891
4456,500.092498779297
4460,500.079986572266
4464,500.059997558594
4468,500.059997558594
4472,500.059997558594
4476,500.070007324219
4480,500.075012207031
4484,500.082489013672
4488,500.084991455078
4492,500.072509765625
4496,500.059997558594
4500,500.057495117188
4504,500.057495117188
4508,500.067504882812
4512,500.072509765625
4516,500.067504882812
4520,500.095001220703
4524,500.102508544922
4528,500.100006103516
4532,500.089996337891
4536,500.084991455078
4540,500.095001220703
4544,500.095001220703
4548,500.112487792969
4552,500.119995117188
4556,500.114990234375
4560,500.109985351562
4564,500.112487792969
4568,500.112487792969
4572,500.119995117188
4576,500.144989013672
4580,500.149993896484
4584,500.149993896484
4588,500.149993896484
4592,500.157501220703
4596,500.160003662109
4600,500.165008544922
4604,500.160003662109
4608,500.157501220703
4612,500.149993896484
4616,500.165008544922
4620,500.165008544922
4624,500.152496337891
4628,500.165008544922
4632,500.162506103516
4636,500.157501220703
4640,500.167510986328
4644,500.170013427734
4648,500.165008544922
4652,500.170013427734
4656,500.177490234375
4660,500.172485351562
4664,500.170013427734
4668,500.170013427734
4672,500.182495117188
4676,500.179992675781
4680,500.177490234375
4684,500.192504882812
4688,500.190002441406
4692,500.190002441406
4696,500.179992675781
4700,500.177490234375
4704,500.184997558594
4708,500.182495117188
4712,500.184997558594
4716,500.184997558594
4720,500.179992675781
4724,500.1875
4728,500.192504882812
4732,500.190002441406
4736,500.190002441406
4740,500.190002441406
4744,500.1875
4748,500.177490234375
4752,500.174987792969
4756,500.184997558594
4760,500.197509765625
4764,500.209991455078
4768,500.207489013672
4772,500.227508544922
4776,500.230010986328
4780,500.230010986328
4784,500.214996337891
4788,500.204986572266
4792,500.212493896484
4796,500.214996337891
4800,500.217498779297
4804,500.214996337891
4808,500.202514648438
4812,500.190002441406
4816,500.197509765625
4820,500.202514648438
4824,500.192504882812
4828,500.179992675781
4832,500.182495117188
4836,500.190002441406
4840,500.195007324219
4844,500.207489013672
4848,500.192504882812
4852,500.184997558594
4856,500.179992675781
4860,500.182495117188
4864,500.174987792969
4868,500.170013427734
4872,500.182495117188
4876,500.179992675781
4880,500.174987792969
4884,500.172485351562
4888,500.160003662109
4892,500.165008544922
4896,500.174987792969
4900,500.170013427734
4904,500.162506103516
4908,500.174987792969
4912,500.170013427734
4916,500.160003662109
4920,500.154998779297
4924,500.149993896484
4928,500.147491455078
4932,500.147491455078
4936,500.147491455078
4940,500.137512207031
4944,500.142486572266
4948,500.144989013672
4952,500.119995117188
4956,500.117492675781
4960,500.105010986328
4964,500.070007324219
4968,499.997497558594
4972,499.907501220703
4976,499.799987792969
4980,499.712493896484
4984,499.647491455078
4988,499.577514648438
4992,499.532501220703
4996,499.484985351562
5000,499.429992675781
5004,499.394989013672
5008,499.385009765625
5012,499.392486572266
5016,499.429992675781
5020,499.470001220703
5024,499.549987792969
5028,499.670013427734
5032,499.785003662109
5036,499.912506103516
5040,500.029998779297
5044,500.157501220703
5048,500.290008544922
5052,500.399993896484
5056,500.505004882812
5060,500.607513427734
5064,500.679992675781
5068,500.704986572266
5072,500.712493896484
5076,500.712493896484
5080,500.704986572266
5084,500.670013427734
5088,500.640014648438
5092,500.577514648438
5096,500.532501220703
5100,500.505004882812
5104,500.459991455078
5108,500.412506103516
5112,500.350006103516
5116,500.315002441406
5120,500.255004882812
5124,500.222503662109
5128,500.202514648438
5132,500.225006103516
5136,500.244995117188
5140,500.25
5144,500.274993896484
5148,500.269989013672
5152,500.295013427734
5156,500.309997558594
5160,500.309997558594
5164,500.307495117188
5168,500.297485351562
5172,500.292510986328
5176,500.282501220703
5180,500.279998779297
5184,500.272491455078
5188,500.260009765625
5192,500.255004882812
5196,500.242492675781
5200,500.252502441406
5204,500.230010986328
5208,500.212493896484
5212,500.202514648438
5216,500.197509765625
5220,500.177490234375
5224,500.157501220703
5228,500.144989013672
5232,500.135009765625
5236,500.132507324219
5240,500.112487792969
5244,500.097503662109
5248,500.092498779297
5252,500.079986572266
5256,500.079986572266
5260,500.0625
5264,500.059997558594
5268,500.052490234375
5272,500.040008544922
5276,500.035003662109
5280,500.029998779297
5284,500.019989013672
5288,500.024993896484
5292,500.035003662109
5296,500.032501220703
5300,500.040008544922
5304,500.042510986328
5308,500.024993896484
5312,500.005004882812
5316,500.010009765625
5320,500.017486572266
5324,500.027496337891
5328,500.019989013672
5332,500.029998779297
5336,500.035003662109
5340,500.040008544922
5344,500.035003662109
5348,500.047485351562
5352,500.052490234375
5356,500.059997558594
5360,500.072509765625
5364,500.070007324219
5368,500.079986572266
5372,500.084991455078
5376,500.100006103516
5380,500.089996337891
5384,500.105010986328
5388,500.112487792969
5392,500.117492675781
5396,500.127502441406
5400,500.125
5404,500.125
5408,500.137512207031
5412,500.132507324219
5416,500.140014648438
5420,500.135009765625
5424,500.130004882812
5428,500.140014648438
5432,500.135009765625
5436,500.149993896484
5440,500.165008544922
5444,500.157501220703
5448,500.149993896484
5452,500.137512207031
5456,500.144989013672
5460,500.154998779297
5464,500.167510986328
5468,500.170013427734
5472,500.162506103516
5476,500.157501220703
5480,500.172485351562
5484,500.162506103516
5488,500.162506103516
5492,500.182495117188
5496,500.1875
5500,500.170013427734
5504,500.165008544922
5508,500.167510986328
5512,500.165008544922
5516,500.157501220703
5520,500.167510986328
5524,500.165008544922
5528,500.162506103516
5532,500.154998779297
5536,500.160003662109
5540,500.160003662109
5544,500.162506103516
5548,500.165008544922
5552,500.160003662109
5556,500.160003662109
5560,500.154998779297
5564,500.149993896484
5568,500.144989013672
5572,500.167510986328
5576,500.160003662109
5580,500.162506103516
5584,500.174987792969
5588,500.1875
5592,500.179992675781
5596,500.179992675781
5600,500.1875
5604,500.200012207031
5608,500.207489013672
5612,500.202514648438
5616,500.202514648438
5620,500.197509765625
5624,500.182495117188
5628,500.167510986328
5632,500.165008544922
5636,500.154998779297
5640,500.170013427734
5644,500.174987792969
5648,500.174987792969
5652,500.179992675781
5656,500.184997558594
5660,500.184997558594
5664,500.177490234375
5668,500.170013427734
5672,500.162506103516
5676,500.165008544922
5680,500.174987792969
5684,500.177490234375
5688,500.160003662109
5692,500.154998779297
5696,500.157501220703
5700,500.157501220703
5704,500.154998779297
5708,500.152496337891
5712,500.152496337891
5716,500.147491455078
5720,500.149993896484
5724,500.160003662109
5728,500.142486572266
5732,500.144989013672
5736,500.147491455078
5740,500.154998779297
5744,500.147491455078
5748,500.149993896484
5752,500.144989013672
5756,500.152496337891
5760,500.147491455078
5764,500.140014648438
5768,500.149993896484
5772,500.140014648438
5776,500.144989013672
5780,500.112487792969
5784,500.075012207031
5788,500.005004882812
5792,499.922485351562
5796,499.834991455078
5800,499.782501220703
5804,499.742492675781
5808,499.712493896484
5812,499.662506103516
5816,499.612487792969
5820,499.572509765625
5824,499.529998779297
5828,499.510009765625
5832,499.527496337891
5836,499.572509765625
5840,499.635009765625
5844,499.725006103516
5848,499.859985351562
5852,499.984985351562
5856,500.112487792969
5860,500.239990234375
5864,500.355010986328
5868,500.475006103516
5872,500.575012207031
5876,500.665008544922
5880,500.734985351562
5884,500.752502441406
5888,500.769989013672
5892,500.747497558594
5896,500.737487792969
5900,500.714996337891
5904,500.684997558594
5908,500.637512207031
5912,500.582489013672
5916,500.532501220703
5920,500.482513427734
5924,500.422485351562
5928,500.377502441406
5932,500.315002441406
5936,500.277496337891
5940,500.242492675781
5944,500.225006103516
5948,500.222503662109
5952,500.220001220703
5956,500.227508544922
5960,500.230010986328
5964,500.25
5968,500.25
5972,500.262512207031
5976,500.269989013672
5980,500.285003662109
5984,500.265014648438
5988,500.269989013672
5992,500.274993896484
5996,500.265014648438
6000,500.265014648438
6004,500.255004882812
6008,500.232513427734
6012,500.225006103516
6016,500.209991455078
6020,500.212493896484
6024,500.207489013672
6028,500.200012207031
6032,500.177490234375
6036,500.157501220703
6040,500.147491455078
6044,500.135009765625
6048,500.135009765625
6052,500.132507324219
6056,500.119995117188
6060,500.105010986328
6064,500.089996337891
6068,500.077514648438
6072,500.059997558594
6076,500.054992675781
6080,500.065002441406
6084,500.0625
6088,500.052490234375
6092,500.057495117188
6096,500.054992675781
6100,500.049987792969
6104,500.052490234375
6108,500.054992675781
6112,500.0625
6116,500.070007324219
6120,500.059997558594
6124,500.049987792969
6128,500.070007324219
6132,500.089996337891
6136,500.089996337891
6140,500.097503662109
6144,500.107513427734
6148,500.107513427734
6152,500.112487792969
6156,500.109985351562
6160,500.127502441406
6164,500.130004882812
6168,500.135009765625
6172,500.149993896484
6176,500.149993896484
6180,500.174987792969
6184,500.177490234375
6188,500.182495117188
6192,500.192504882812
6196,500.200012207031
6200,500.207489013672
6204,500.207489013672
6208,500.225006103516
6212,500.234985351562
6216,500.234985351562
6220,500.232513427734
6224,500.234985351562
6228,500.217498779297
6232,500.227508544922
6236,500.239990234375
6240,500.239990234375
6244,500.239990234375
6248,500.247497558594
6252,500.255004882812
6256,500.262512207031
6260,500.260009765625
6264,500.265014648438
6268,500.265014648438
6272,500.274993896484
6276,500.272491455078
6280,500.285003662109
6284,500.290008544922
6288,500.292510986328
6292,500.290008544922
6296,500.269989013672
6300,500.279998779297
6304,500.274993896484
6308,500.274993896484
6312,500.267486572266
6316,500.277496337891
6320,500.269989013672
6324,500.269989013672
6328,500.277496337891
6332,500.282501220703
6336,500.277496337891
6340,500.279998779297
6344,500.277496337891
6348,500.274993896484
6352,500.279998779297
6356,500.272491455078
6360,500.277496337891
6364,500.274993896484
6368,500.257507324219
6372,500.272491455078
6376,500.277496337891
6380,500.265014648438
6384,500.277496337891
6388,500.272491455078
6392,500.272491455078
6396,500.279998779297
6400,500.277496337891
6404,500.292510986328
6408,500.299987792969
6412,500.299987792969
6416,500.292510986328
6420,500.302490234375
6424,500.295013427734
6428,500.309997558594
6432,500.309997558594
6436,500.297485351562
6440,500.295013427734
6444,500.272491455078
6448,500.269989013672
6452,500.277496337891
6456,500.269989013672
6460,500.274993896484
6464,500.287506103516
6468,500.297485351562
6472,500.297485351562
6476,500.295013427734
6480,500.307495117188
6484,500.290008544922
6488,500.290008544922
6492,500.290008544922
6496,500.272491455078
6500,500.267486572266
6504,500.277496337891
6508,500.274993896484
6512,500.277496337891
6516,500.277496337891
6520,500.274993896484
6524,500.287506103516
6528,500.279998779297
6532,500.282501220703
6536,500.287506103516
6540,500.277496337891
6544,500.287506103516
6548,500.279998779297
6552,500.287506103516
6556,500.282501220703
6560,500.269989013672
6564,500.265014648438
6568,500.260009765625
6572,500.267486572266
6576,500.265014648438
6580,500.272491455078
6584,500.260009765625
6588,500.242492675781
6592,500.230010986328
6596,500.182495117188
6600,500.119995117188
6604,500.040008544922
6608,499.962493896484
6612,499.904998779297
6616,499.869995117188
6620,499.834991455078
6624,499.795013427734
6628,499.734985351562
6632,499.695007324219
6636,499.670013427734
6640,499.670013427734
6644,499.695007324219
6648,499.755004882812
6652,499.850006103516
6656,499.962493896484
6660,500.092498779297
6664,500.217498779297
6668,500.322509765625
6672,500.440002441406
6676,500.540008544922
6680,500.635009765625
6684,500.720001220703
6688,500.785003662109
6692,500.847503662109
6696,500.855010986328
6700,500.822509765625
6704,500.777496337891
6708,500.720001220703
6712,500.679992675781
6716,500.630004882812
6720,500.584991455078
6724,500.559997558594
6728,500.522491455078
6732,500.487487792969
6736,500.452514648438
6740,500.4375
6744,500.404998779297
6748,500.382507324219
6752,500.367492675781
6756,500.350006103516
6760,500.369995117188
6764,500.385009765625
6768,500.397491455078
6772,500.399993896484
6776,500.394989013672
6780,500.399993896484
6784,500.404998779297
6788,500.417510986328
6792,500.429992675781
6796,500.434997558594
6800,500.424987792969
6804,500.432495117188
6808,500.422485351562
6812,500.415008544922
6816,500.402496337891
6820,500.399993896484
6824,500.394989013672
6828,500.397491455078
6832,500.387512207031
6836,500.380004882812
6840,500.364990234375
6844,500.350006103516
6848,500.355010986328
6852,500.320007324219
6856,500.334991455078
6860,500.309997558594
6864,500.309997558594
6868,500.317504882812
6872,500.307495117188
6876,500.269989013672
6880,500.260009765625
6884,500.257507324219
6888,500.265014648438
6892,500.277496337891
6896,500.265014648438
6900,500.260009765625
6904,500.257507324219
6908,500.255004882812
6912,500.260009765625
6916,500.260009765625
6920,500.252502441406
6924,500.265014648438
6928,500.272491455078
6932,500.279998779297
6936,500.277496337891
6940,500.274993896484
6944,500.269989013672
6948,500.265014648438
6952,500.269989013672
6956,500.282501220703
6960,500.277496337891
6964,500.285003662109
6968,500.307495117188
6972,500.315002441406
6976,500.320007324219
6980,500.345001220703
6984,500.345001220703
6988,500.339996337891
6992,500.339996337891
6996,500.337493896484
7000,500.345001220703
7004,500.342498779297
7008,500.345001220703
7012,500.350006103516
7016,500.339996337891
7020,500.329986572266
7024,500.320007324219
7028,500.315002441406
7032,500.339996337891
7036,500.342498779297
7040,500.334991455078
7044,500.329986572266
7048,500.329986572266
7052,500.325012207031
7056,500.322509765625
7060,500.327514648438
7064,500.345001220703
7068,500.332489013672
7072,500.332489013672
7076,500.320007324219
7080,500.325012207031
7084,500.3125
7088,500.307495117188
7092,500.295013427734
7096,500.309997558594
7100,500.290008544922
7104,500.295013427734
7108,500.295013427734
7112,500.295013427734
7116,500.297485351562
7120,500.292510986328
7124,500.299987792969
7128,500.299987792969
7132,500.297485351562
7136,500.285003662109
7140,500.287506103516
7144,500.287506103516
7148,500.295013427734
7152,500.282501220703
7156,500.279998779297
7160,500.279998779297
7164,500.269989013672
7168,500.272491455078
7172,500.272491455078
7176,500.269989013672
7180,500.267486572266
7184,500.269989013672
7188,500.282501220703
7192,500.292510986328
7196,500.295013427734
7200,500.295013427734
7204,500.292510986328
7208,500.297485351562
7212,500.302490234375
7216,500.299987792969
7220,500.304992675781
7224,500.320007324219
7228,500.317504882812
7232,500.320007324219
7236,500.329986572266
7240,500.337493896484
7244,500.315002441406
7248,500.299987792969
7252,500.282501220703
7256,500.279998779297
7260,500.277496337891
7264,500.290008544922
7268,500.295013427734
7272,500.304992675781
7276,500.315002441406
7280,500.329986572266
7284,500.342498779297
7288,500.337493896484
7292,500.332489013672
7296,500.320007324219
7300,500.325012207031
7304,500.309997558594
7308,500.307495117188
7312,500.309997558594
7316,500.3125
7320,500.322509765625
7324,500.320007324219
7328,500.327514648438
7332,500.337493896484
7336,500.342498779297
7340,500.337493896484
7344,500.337493896484
7348,500.329986572266
7352,500.309997558594
7356,500.299987792969
7360,500.309997558594
7364,500.339996337891
7368,500.362487792969
7372,500.390014648438
7376,500.369995117188
7380,500.322509765625
7384,500.287506103516
7388,500.244995117188
7392,500.222503662109
7396,500.195007324219
7400,500.160003662109
7404,500.112487792969
7408,500.029998779297
7412,499.945007324219
7416,499.847503662109
7420,499.777496337891
7424,499.722503662109
7428,499.679992675781
7432,499.642486572266
7436,499.597503662109
7440,499.572509765625
7444,499.529998779297
7448,499.522491455078
7452,499.540008544922
7456,499.625
7460,499.769989013672
7464,499.950012207031
7468,500.132507324219
7472,500.269989013672
7476,500.372497558594
7480,500.472503662109
7484,500.542510986328
7488,500.617492675781
7492,500.679992675781
7496,500.730010986328
7500,500.757507324219
7504,500.75
7508,500.717498779297
7512,500.657501220703
7516,500.605010986328
7520,500.549987792969
7524,500.5
7528,500.447509765625
7532,500.420013427734
7536,500.377502441406
7540,500.307495117188
7544,500.244995117188
7548,500.209991455078
7552,500.214996337891
7556,500.230010986328
7560,500.257507324219
7564,500.272491455078
7568,500.285003662109
7572,500.287506103516
7576,500.292510986328
7580,500.297485351562
7584,500.307495117188
7588,500.327514648438
7592,500.332489013672
7596,500.329986572266
7600,500.297485351562
7604,500.292510986328
7608,500.25
7612,500.214996337891
7616,500.1875
7620,500.167510986328
7624,500.170013427734
7628,500.165008544922
7632,500.165008544922
7636,500.165008544922
7640,500.167510986328
7644,500.162506103516
7648,500.140014648438
7652,500.107513427734
7656,500.087493896484
7660,500.092498779297
7664,500.100006103516
7668,500.109985351562
7672,500.097503662109
7676,500.075012207031
7680,500.067504882812
7684,500.035003662109
7688,500.010009765625
7692,499.992492675781
7696,500.002502441406
7700,500.037506103516
7704,500.057495117188
7708,500.0625
7712,500.047485351562
7716,500.045013427734
7720,500.070007324219
7724,500.109985351562
7728,500.144989013672
7732,500.147491455078
7736,500.152496337891
7740,500.137512207031
7744,500.125
7748,500.109985351562
7752,500.127502441406
7756,500.152496337891
7760,500.165008544922
7764,500.182495117188
7768,500.179992675781
7772,500.167510986328
7776,500.160003662109
7780,500.135009765625
7784,500.119995117188
7788,500.137512207031
7792,500.149993896484
7796,500.154998779297
7800,500.174987792969
7804,500.174987792969
7808,500.197509765625
7812,500.204986572266
7816,500.197509765625
7820,500.202514648438
7824,500.204986572266
7828,500.212493896484
7832,500.217498779297
7836,500.200012207031
7840,500.192504882812
7844,500.184997558594
7848,500.182495117188
7852,500.182495117188
7856,500.184997558594
7860,500.177490234375
7864,500.172485351562
7868,500.172485351562
7872,500.192504882812
7876,500.190002441406
7880,500.1875
7884,500.174987792969
7888,500.149993896484
7892,500.119995117188
7896,500.117492675781
7900,500.140014648438
7904,500.177490234375
7908,500.204986572266
7912,500.225006103516
7916,500.225006103516
7920,500.222503662109
7924,500.209991455078
7928,500.207489013672
7932,500.207489013672
7936,500.200012207031
7940,500.195007324219
7944,500.184997558594
7948,500.172485351562
7952,500.167510986328
7956,500.172485351562
7960,500.165008544922
7964,500.165008544922
7968,500.152496337891
7972,500.135009765625
7976,500.149993896484
7980,500.174987792969
7984,500.182495117188
7988,500.170013427734
7992,500.147491455078
7996,500.130004882812
8000,500.125
8004,500.152496337891
8007,500.190002441406
8012,500.242492675781
8016,500.252502441406
8020,500.247497558594
8023,500.234985351562
8028,500.222503662109
8032,500.217498779297
8036,500.202514648438
8039,500.200012207031
8044,500.197509765625
8048,500.200012207031
8052,500.200012207031
8055,500.179992675781
8060,500.167510986328
8064,500.167510986328
8068,500.170013427734
8071,500.179992675781
8076,500.192504882812
8080,500.1875
8084,500.182495117188
8087,500.184997558594
8092,500.177490234375
8096,500.170013427734
8100,500.152496337891
8103,500.152496337891
8108,500.149993896484
8112,500.152496337891
8116,500.149993896484
8119,500.160003662109
8124,500.165008544922
8128,500.154998779297
8132,500.152496337891
8135,500.149993896484
8140,500.144989013672
8144,500.154998779297
8148,500.152496337891
8151,500.154998779297
8156,500.154998779297
8160,500.149993896484
8164,500.147491455078
8167,500.154998779297
8172,500.144989013672
8176,500.142486572266
8180,500.132507324219
8183,500.140014648438
8188,500.149993896484
8192,500.152496337891
8196,500.152496337891
8200,500.149993896484
8204,500.135009765625
8208,500.112487792969
8212,500.065002441406
8216,500.010009765625
8220,499.934997558594
8224,499.847503662109
8228,499.779998779297
8232,499.727508544922
8236,499.702514648438
8240,499.662506103516
8244,499.617492675781
8248,499.559997558594
8252,499.545013427734
8256,499.549987792969
8260,499.570007324219
8264,499.630004882812
8268,499.702514648438
8272,499.799987792969
8276,499.934997558594
8280,500.057495117188
8284,500.154998779297
8288,500.260009765625
8292,500.347503662109
8296,500.422485351562
8300,500.489990234375
8304,500.532501220703
8308,500.572509765625
8312,500.5625
8316,500.529998779297
8320,500.472503662109
8324,500.420013427734
8328,500.364990234375
8332,500.302490234375
8336,500.267486572266
8340,500.234985351562
8344,500.217498779297
8348,500.204986572266
8352,500.184997558594
8356,500.157501220703
8360,500.154998779297
8364,500.132507324219
8368,500.119995117188
8372,500.109985351562
8376,500.107513427734
8380,500.117492675781
8384,500.137512207031
8388,500.160003662109
8392,500.174987792969
8396,500.197509765625
8400,500.209991455078
8404,500.195007324219
8408,500.190002441406
8412,500.184997558594
8416,500.177490234375
8420,500.177490234375
8424,500.170013427734
8428,500.177490234375
8432,500.172485351562
8436,500.172485351562
8440,500.172485351562
8444,500.149993896484
8448,500.135009765625
8452,500.117492675781
8456,500.107513427734
8460,500.095001220703
8464,500.097503662109
8468,500.072509765625
8472,500.0625
8476,500.035003662109
8480,500.045013427734
8484,500.037506103516
8488,500.040008544922
8492,500.035003662109
8496,500.022491455078
8500,500.010009765625
8504,500.012512207031
8508,500.012512207031
8512,500.015014648438
8516,500.005004882812
8520,500.015014648438
8524,500.019989013672
8528,500.022491455078
8532,500.029998779297
8536,500.032501220703
8540,500.024993896484
8544,500.017486572266
8548,500.010009765625
8552,500.022491455078
8556,500.024993896484
8560,500.024993896484
8564,500.027496337891
8568,500.024993896484
8572,500.042510986328
8576,500.045013427734
8580,500.052490234375
8584,500.057495117188
8588,500.065002441406
8592,500.067504882812
8596,500.079986572266
8600,500.100006103516
8604,500.097503662109
8608,500.107513427734
8612,500.102508544922
8616,500.097503662109
8620,500.107513427734
8624,500.109985351562
8628,500.105010986328
8632,500.105010986328
8636,500.112487792969
8640,500.117492675781
8644,500.127502441406
8648,500.132507324219
8652,500.140014648438
8656,500.149993896484
8660,500.149993896484
8664,500.147491455078
8668,500.149993896484
8672,500.160003662109
8676,500.157501220703
8680,500.147491455078
8684,500.135009765625
8688,500.144989013672
8692,500.137512207031
8696,500.152496337891
8700,500.144989013672
8704,500.154998779297
8708,500.160003662109
8712,500.165008544922
8716,500.170013427734
8720,500.167510986328
8724,500.177490234375
8728,500.177490234375
8732,500.182495117188
8736,500.182495117188
8740,500.184997558594
8744,500.195007324219
8748,500.202514648438
8752,500.190002441406
8756,500.174987792969
8760,500.177490234375
8764,500.177490234375
8768,500.1875
8772,500.177490234375
8776,500.170013427734
8780,500.174987792969
8784,500.167510986328
8788,500.177490234375
8792,500.1875
8796,500.197509765625
8800,500.197509765625
8804,500.207489013672
8808,500.202514648438
8812,500.209991455078
8816,500.222503662109
8820,500.234985351562
8824,500.234985351562
8828,500.242492675781
8832,500.237487792969
8836,500.230010986328
8840,500.232513427734
8844,500.230010986328
8848,500.217498779297
8852,500.222503662109
8856,500.214996337891
8860,500.214996337891
8864,500.222503662109
8868,500.222503662109
8872,500.225006103516
8876,500.227508544922
8880,500.225006103516
8884,500.234985351562
8888,500.227508544922
8892,500.234985351562
8896,500.230010986328
8900,500.220001220703
8904,500.212493896484
8908,500.212493896484
8912,500.204986572266
8916,500.200012207031
8920,500.192504882812
8924,500.1875
8928,500.195007324219
8932,500.197509765625
8936,500.197509765625
8940,500.200012207031
8944,500.204986572266
8948,500.200012207031
8952,500.197509765625
8956,500.1875
8960,500.190002441406
8964,500.197509765625
8968,500.195007324219
8972,500.184997558594
8976,500.190002441406
8980,500.192504882812
8984,500.177490234375
8988,500.172485351562
8992,500.182495117188
8996,500.195007324219
9000,500.184997558594
9004,500.1875
9008,500.172485351562
9012,500.160003662109
9016,500.122497558594
9020,500.079986572266
9024,500
9028,499.920013427734
9032,499.847503662109
9036,499.802490234375
9040,499.772491455078
9044,499.714996337891
9048,499.665008544922
9052,499.625
9056,499.612487792969
9060,499.652496337891
9064,499.702514648438
9068,499.772491455078
9072,499.862487792969
9076,499.970001220703
9080,500.095001220703
9084,500.214996337891
9088,500.325012207031
9092,500.432495117188
9096,500.529998779297
9100,500.627502441406
9104,500.682495117188
9108,500.720001220703
9112,500.739990234375
9116,500.734985351562
9120,500.714996337891
9124,500.662506103516
9128,500.630004882812
9132,500.572509765625
9136,500.524993896484
9140,500.462493896484
9144,500.424987792969
9148,500.399993896484
9152,500.367492675781
9156,500.329986572266
9160,500.295013427734
9164,500.279998779297
9168,500.255004882812
9172,500.230010986328
9176,500.214996337891
9180,500.214996337891
9184,500.222503662109
9188,500.227508544922
9192,500.25
9196,500.25
9200,500.255004882812
9204,500.260009765625
9208,500.267486572266
9212,500.262512207031
9216,500.267486572266
9220,500.260009765625
9224,500.269989013672
9228,500.267486572266
9232,500.262512207031
9236,500.252502441406
9240,500.237487792969
9244,500.234985351562
9248,500.225006103516
9252,500.225006103516
9256,500.222503662109
9260,500.212493896484
9264,500.195007324219
9268,500.177490234375
9272,500.160003662109
9276,500.160003662109
9280,500.149993896484
9284,500.152496337891
9288,500.152496337891
9292,500.149993896484
9296,500.147491455078
9300,500.127502441406
9304,500.122497558594
9308,500.109985351562
9312,500.102508544922
9316,500.102508544922
9320,500.102508544922
9324,500.097503662109
9328,500.097503662109
9332,500.095001220703
9336,500.100006103516
9340,500.107513427734
9344,500.112487792969
9348,500.105010986328
9352,500.105010986328
9356,500.089996337891
9360,500.092498779297
9364,500.082489013672
9368,500.077514648438
9372,500.075012207031
9376,500.072509765625
9380,500.067504882812
9384,500.077514648438
9388,500.079986572266
9392,500.082489013672
9396,500.072509765625
9400,500.067504882812
9404,500.070007324219
9408,500.077514648438
9412,500.087493896484
9416,500.082489013672
9420,500.092498779297
9424,500.100006103516
9428,500.102508544922
9432,500.109985351562
9436,500.142486572266
9440,500.167510986328
9444,500.177490234375
9448,500.162506103516
9452,500.160003662109
9456,500.172485351562
9460,500.179992675781
9464,500.192504882812
9468,500.197509765625
9472,500.200012207031
9476,500.200012207031
9480,500.207489013672
9484,500.202514648438
9488,500.192504882812
9492,500.202514648438
9496,500.207489013672
9500,500.209991455078
9504,500.220001220703
9508,500.225006103516
9512,500.222503662109
9516,500.222503662109
9520,500.230010986328
9524,500.227508544922
9528,500.225006103516
9532,500.239990234375
9536,500.247497558594
9540,500.244995117188
9544,500.239990234375
9548,500.234985351562
9552,500.220001220703
9556,500.225006103516
9560,500.222503662109
9564,500.234985351562
9568,500.227508544922
9572,500.234985351562
9576,500.237487792969
9580,500.25
9584,500.244995117188
9588,500.255004882812
9592,500.257507324219
9596,500.252502441406
9600,500.255004882812
9604,500.265014648438
9608,500.265014648438
9612,500.265014648438
9616,500.274993896484
9620,500.272491455078
9624,500.267486572266
9628,500.269989013672
9632,500.274993896484
9636,500.267486572266
9640,500.265014648438
9644,500.265014648438
9648,500.277496337891
9652,500.272491455078
9656,500.285003662109
9660,500.287506103516
9664,500.262512207031
9668,500.244995117188
9672,500.244995117188
9676,500.239990234375
9680,500.25
9684,500.247497558594
9688,500.25
9692,500.25
9696,500.25
9700,500.244995117188
9704,500.25
9708,500.242492675781
9712,500.234985351562
9716,500.232513427734
9720,500.227508544922
9724,500.230010986328
9728,500.220001220703
9732,500.214996337891
9736,500.217498779297
9740,500.214996337891
9744,500.214996337891
9748,500.207489013672
9752,500.220001220703
9756,500.207489013672
9760,500.220001220703
9764,500.227508544922
9768,500.214996337891
9772,500.202514648438
9776,500.192504882812
9780,500.190002441406
9784,500.179992675781
9788,500.182495117188
9792,500.182495117188
9796,500.182495117188
9800,500.184997558594
9804,500.195007324219
9808,500.197509765625
9812,500.200012207031
9816,500.184997558594
9820,500.147491455078
9824,500.079986572266
9828,499.997497558594
9832,499.910003662109
9836,499.839996337891
9840,499.802490234375
9844,499.767486572266
9848,499.725006103516
9852,499.670013427734
9856,499.635009765625
9860,499.614990234375
9864,499.612487792969
9868,499.640014648438
9872,499.697509765625
9876,499.782501220703
9880,499.894989013672
9884,500.029998779297
9888,500.160003662109
9892,500.267486572266
9896,500.382507324219
9900,500.484985351562
9904,500.567504882812
9908,500.622497558594
9912,500.679992675781
9916,500.709991455078
9920,500.702514648438
9924,500.667510986328
9928,500.617492675781
9932,500.559997558594
9936,500.512512207031
9940,500.477508544922
9944,500.442504882812
9948,500.417510986328
9952,500.385009765625
9956,500.350006103516
9960,500.3125
9964,500.272491455078
9968,500.25
9972,500.225006103516
9976,500.220001220703
9980,500.214996337891
9984,500.217498779297
9988,500.214996337891
9992,500.232513427734
9996,500.234985351562
10000,500.237487792969
10004,500.255004882812
10008,500.257507324219
10012,500.265014648438
10016,500.267486572266
10020,500.267486572266
10024,500.255004882812
10028,500.252502441406
10032,500.242492675781
10036,500.237487792969
10040,500.230010986328
10044,500.237487792969
10048,500.225006103516
10052,500.214996337891
10056,500.209991455078
10060,500.200012207031
10064,500.190002441406
10068,500.174987792969
10072,500.167510986328
10076,500.152496337891
10080,500.144989013672
10084,500.135009765625
10088,500.137512207031
10092,500.132507324219
10096,500.112487792969
10100,500.107513427734
10104,500.102508544922
10108,500.092498779297
10112,500.105010986328
10116,500.102508544922
10120,500.087493896484
10124,500.077514648438
10128,500.057495117188
10132,500.057495117188
10136,500.065002441406
10140,500.072509765625
10144,500.082489013672
10148,500.089996337891
10152,500.079986572266
10156,500.087493896484
10160,500.084991455078
10164,500.087493896484
10168,500.102508544922
10172,500.109985351562
10176,500.114990234375
10180,500.114990234375
10184,500.127502441406
10188,500.132507324219
10192,500.127502441406
10196,500.144989013672
10200,500.140014648438
10204,500.147491455078
10208,500.154998779297
10212,500.160003662109
10216,500.152496337891
10220,500.154998779297
10224,500.172485351562
10228,500.172485351562
10232,500.182495117188
10236,500.1875
10240,500.190002441406
10244,500.204986572266
10248,500.195007324219
10252,500.195007324219
10256,500.202514648438
10260,500.214996337891
10264,500.217498779297
10268,500.220001220703
10272,500.212493896484
10276,500.222503662109
10280,500.214996337891
10284,500.207489013672
10288,500.207489013672
10292,500.217498779297
10296,500.212493896484
10300,500.220001220703
10304,500.237487792969
10308,500.237487792969
10312,500.232513427734
10316,500.232513427734
10320,500.242492675781
10324,500.244995117188
10328,500.237487792969
10332,500.239990234375
10336,500.232513427734
10340,500.234985351562
10344,500.239990234375
10348,500.239990234375
10352,500.237487792969
10356,500.234985351562
10360,500.230010986328
10364,500.214996337891
10368,500.220001220703
10372,500.234985351562
10376,500.230010986328
10380,500.220001220703
10384,500.230010986328
10388,500.242492675781
10392,500.232513427734
10396,500.232513427734
10400,500.237487792969
10404,500.239990234375
10408,500.239990234375
10412,500.242492675781
10416,500.247497558594
10420,500.252502441406
10424,500.252502441406
10428,500.262512207031
10432,500.262512207031
10436,500.262512207031
10440,500.265014648438
10444,500.260009765625
10448,500.260009765625
10452,500.262512207031
10456,500.247497558594
10460,500.25
10464,500.25
10468,500.242492675781
10472,500.232513427734
10476,500.225006103516
10480,500.230010986328
10484,500.237487792969
10488,500.237487792969
10492,500.239990234375
10496,500.234985351562
10500,500.237487792969
10504,500.232513427734
10508,500.234985351562
10512,500.222503662109
10516,500.204986572266
10520,500.222503662109
10524,500.217498779297
10528,500.202514648438
10532,500.200012207031
10536,500.207489013672
10540,500.220001220703
10544,500.209991455078
10548,500.207489013672
10552,500.195007324219
10556,500.195007324219
10560,500.192504882812
10564,500.190002441406
10568,500.195007324219
10572,500.195007324219
10576,500.192504882812
10580,500.192504882812
10584,500.190002441406
10588,500.192504882812
10592,500.1875
10596,500.174987792969
10600,500.182495117188
10604,500.182495117188
10608,500.197509765625
10612,500.190002441406
10616,500.172485351562
10620,500.135009765625
10624,500.077514648438
10628,500.005004882812
10632,499.910003662109
10636,499.845001220703
10640,499.790008544922
10644,499.747497558594
10648,499.682495117188
10652,499.625
10656,499.579986572266
10660,499.549987792969
10664,499.552490234375
10668,499.565002441406
10672,499.597503662109
10676,499.662506103516
10680,499.772491455078
10684,499.899993896484
10688,500.029998779297
10692,500.157501220703
10696,500.262512207031
10700,500.377502441406
10704,500.464996337891
10708,500.532501220703
10712,500.589996337891
10716,500.637512207031
10720,500.654998779297
10724,500.644989013672
10728,500.597503662109
10732,500.552490234375
10736,500.512512207031
10740,500.462493896484
10744,500.420013427734
10748,500.387512207031
10752,500.362487792969
10756,500.337493896484
10760,500.302490234375
10764,500.290008544922
10768,500.262512207031
10772,500.247497558594
10776,500.225006103516
10780,500.209991455078
10784,500.202514648438
10788,500.220001220703
10792,500.230010986328
10796,500.257507324219
10800,500.267486572266
10804,500.290008544922
10808,500.295013427734
10812,500.295013427734
10816,500.290008544922
10820,500.290008544922
10824,500.297485351562
10828,500.290008544922
10832,500.292510986328
10836,500.269989013672
10840,500.265014648438
10844,500.252502441406
10848,500.242492675781
10852,500.237487792969
10856,500.214996337891
10860,500.204986572266
10864,500.200012207031
10868,500.192504882812
10872,500.190002441406
10876,500.177490234375
10880,500.165008544922
10884,500.160003662109
10888,500.154998779297
10892,500.142486572266
10896,500.140014648438
10900,500.132507324219
10904,500.105010986328
10908,500.105010986328
10912,500.105010986328
10916,500.107513427734
10920,500.107513427734
10924,500.102508544922
10928,500.097503662109
10932,500.100006103516
10936,500.114990234375
10940,500.112487792969
10944,500.114990234375
10948,500.105010986328
10952,500.109985351562
10956,500.102508544922
10960,500.125
10964,500.132507324219
10968,500.119995117188
10972,500.125
10976,500.130004882812
10980,500.142486572266
10984,500.137512207031
10988,500.154998779297
10992,500.157501220703
10996,500.149993896484
11000,500.154998779297
11004,500.174987792969
11008,500.190002441406
11012,500.192504882812
11016,500.195007324219
11020,500.195007324219
11024,500.200012207031
11028,500.200012207031
11032,500.214996337891
11036,500.230010986328
11040,500.225006103516
11044,500.230010986328
11048,500.234985351562
11052,500.227508544922
11056,500.230010986328
11060,500.242492675781
11064,500.232513427734
11068,500.227508544922
11072,500.230010986328
11076,500.232513427734
11080,500.227508544922
11084,500.227508544922
11088,500.217498779297
11092,500.222503662109
11096,500.220001220703
11100,500.217498779297
11104,500.225006103516
11108,500.237487792969
11112,500.230010986328
11116,500.225006103516
11120,500.220001220703
11124,500.227508544922
11128,500.237487792969
11132,500.227508544922
11136,500.217498779297
11140,500.212493896484
11144,500.225006103516
11148,500.222503662109
11152,500.222503662109
11156,500.232513427734
11160,500.220001220703
11164,500.230010986328
11168,500.225006103516
11172,500.225006103516
11176,500.230010986328
11180,500.230010986328
11184,500.232513427734
11188,500.230010986328
11192,500.220001220703
11196,500.239990234375
11200,500.230010986328
11204,500.230010986328
11208,500.239990234375
11212,500.247497558594
11216,500.239990234375
11220,500.25
11224,500.260009765625
11228,500.265014648438
11232,500.255004882812
11236,500.265014648438
11240,500.260009765625
11244,500.269989013672
11248,500.272491455078
11252,500.267486572266
11256,500.257507324219
11260,500.244995117188
11264,500.242492675781
11268,500.232513427734
11272,500.232513427734
11276,500.247497558594
11280,500.242492675781
11284,500.234985351562
11288,500.239990234375
11292,500.25
11296,500.244995117188
11300,500.237487792969
11304,500.230010986328
11308,500.212493896484
11312,500.204986572266
11316,500.190002441406
11320,500.192504882812
11324,500.190002441406
11328,500.202514648438
11332,500.200012207031
11336,500.197509765625
11340,500.204986572266
11344,500.195007324219
11348,500.207489013672
11352,500.204986572266
11356,500.197509765625
11360,500.197509765625
11364,500.207489013672
11368,500.197509765625
11372,500.197509765625
11376,500.195007324219
11380,500.192504882812
11384,500.200012207031
11388,500.207489013672
11392,500.207489013672
11396,500.209991455078
11400,500.202514648438
11404,500.184997558594
11408,500.162506103516
11412,500.137512207031
11416,500.089996337891
11420,500
11424,499.920013427734
11428,499.839996337891
11432,499.779998779297
11436,499.737487792969
11440,499.692504882812
11444,499.630004882812
11448,499.589996337891
11452,499.5625
11456,499.567504882812
11460,499.612487792969
11464,499.662506103516
11468,499.755004882812
11472,499.857513427734
11476,499.987487792969
11480,500.119995117188
11484,500.252502441406
11488,500.372497558594
11492,500.477508544922
11496,500.582489013672
11500,500.649993896484
11504,500.717498779297
11508,500.779998779297
11512,500.8125
11516,500.799987792969
11520,500.765014648438
11524,500.714996337891
11528,500.665008544922
11532,500.617492675781
11536,500.559997558594
11540,500.5
11544,500.467498779297
11548,500.427490234375
11552,500.380004882812
11556,500.347503662109
11560,500.325012207031
11564,500.297485351562
11568,500.262512207031
11572,500.230010986328
11576,500.220001220703
11580,500.222503662109
11584,500.239990234375
11588,500.262512207031
11592,500.274993896484
11596,500.285003662109
11600,500.302490234375
11604,500.297485351562
11608,500.292510986328
11612,500.285003662109
11616,500.282501220703
11620,500.267486572266
11624,500.265014648438
11628,500.272491455078
11632,500.272491455078
11636,500.247497558594
11640,500.234985351562
11644,500.227508544922
11648,500.217498779297
11652,500.209991455078
11656,500.204986572266
11660,500.192504882812
11664,500.177490234375
11668,500.179992675781
11672,500.170013427734
11676,500.160003662109
11680,500.147491455078
11684,500.142486572266
11688,500.137512207031
11692,500.119995117188
11696,500.114990234375
11700,500.105010986328
11704,500.109985351562
11708,500.102508544922
11712,500.100006103516
11716,500.100006103516
11720,500.102508544922
11724,500.087493896484
11728,500.092498779297
11732,500.095001220703
11736,500.100006103516
11740,500.105010986328
11744,500.109985351562
11748,500.114990234375
11752,500.125
11756,500.119995117188
11760,500.135009765625
11764,500.127502441406
11768,500.132507324219
11772,500.135009765625
11776,500.140014648438
11780,500.157501220703
11784,500.144989013672
11788,500.160003662109
11792,500.167510986328
11796,500.192504882812
11800,500.190002441406
11804,500.195007324219
11808,500.202514648438
11812,500.204986572266
11816,500.212493896484
11820,500.222503662109
11824,500.225006103516
11828,500.222503662109
11832,500.230010986328
11836,500.244995117188
11840,500.242492675781
11844,500.25
11848,500.257507324219
11852,500.237487792969
11856,500.234985351562
11860,500.237487792969
11864,500.247497558594
11868,500.252502441406
11872,500.255004882812
11876,500.255004882812
11880,500.25
11884,500.255004882812
11888,500.252502441406
11892,500.25
11896,500.257507324219
11900,500.269989013672
11904,500.267486572266
11908,500.262512207031
11912,500.260009765625
11916,500.252502441406
11920,500.267486572266
11924,500.252502441406
11928,500.257507324219
11932,500.257507324219
11936,500.257507324219
11940,500.265014648438
11944,500.265014648438
11948,500.262512207031
11952,500.262512207031
11956,500.260009765625
11960,500.252502441406
11964,500.255004882812
11968,500.260009765625
11972,500.262512207031
11976,500.262512207031
11980,500.267486572266
11984,500.262512207031
11988,500.260009765625
11992,500.262512207031
11996,500.267486572266
12000,500.274993896484
12004,500.265014648438
12008,500.267486572266
12012,500.279998779297
12016,500.282501220703
12020,500.282501220703
12024,500.290008544922
12028,500.292510986328
12032,500.297485351562
12036,500.290008544922
12040,500.290008544922
12044,500.285003662109
12048,500.282501220703
12052,500.279998779297
12056,500.272491455078
12060,500.272491455078
12064,500.277496337891
12068,500.257507324219
12072,500.265014648438
12076,500.267486572266
12080,500.277496337891
12084,500.279998779297
12088,500.279998779297
12092,500.272491455078
12096,500.265014648438
12100,500.255004882812
12104,500.252502441406
12108,500.25
12112,500.252502441406
12116,500.237487792969
12120,500.234985351562
12124,500.232513427734
12128,500.252502441406
12132,500.255004882812
12136,500.247497558594
12140,500.252502441406
12144,500.255004882812
12148,500.239990234375
12152,500.252502441406
12156,500.257507324219
12160,500.244995117188
12164,500.244995117188
12168,500.234985351562
12172,500.234985351562
12176,500.239990234375
12180,500.222503662109
12184,500.234985351562
12188,500.237487792969
12192,500.230010986328
12196,500.225006103516
12200,500.227508544922
12204,500.207489013672
12208,500.157501220703
12212,500.092498779297
12216,500.002502441406
12220,499.902496337891
12224,499.825012207031
12228,499.785003662109
12232,499.737487792969
12236,499.692504882812
12240,499.644989013672
12244,499.607513427734
12248,499.597503662109
12252,499.612487792969
12256,499.642486572266
12260,499.702514648438
12264,499.795013427734
12268,499.915008544922
12272,500.057495117188
12276,500.200012207031
12280,500.320007324219
12284,500.420013427734
12288,500.579986572266
12292,500.667510986328
12296,500.742492675781
12300,500.797485351562
12304,500.809997558594
12308,500.792510986328
12312,500.760009765625
12316,500.727508544922
12320,500.674987792969
12324,500.619995117188
12328,500.552490234375
12332,500.502502441406
12336,500.454986572266
12340,500.410003662109
12344,500.369995117188
12348,500.320007324219
12352,500.282501220703
12356,500.260009765625
12360,500.234985351562
12364,500.222503662109
12368,500.204986572266
12372,500.207489013672
12376,500.217498779297
12380,500.227508544922
12384,500.244995117188
12388,500.265014648438
12392,500.279998779297
12396,500.272491455078
12400,500.277496337891
12404,500.272491455078
12408,500.267486572266
12412,500.265014648438
12416,500.265014648438
12420,500.247497558594
12424,500.232513427734
12428,500.227508544922
12432,500.220001220703
12436,500.217498779297
12440,500.207489013672
12444,500.190002441406
12448,500.184997558594
12452,500.179992675781
12456,500.172485351562
12460,500.160003662109
12464,500.154998779297
12468,500.135009765625
12472,500.127502441406
12476,500.114990234375
12480,500.107513427734
12484,500.105010986328
12488,500.095001220703
12492,500.077514648438
12496,500.077514648438
12500,500.065002441406
12504,500.067504882812
12508,500.0625
12512,500.065002441406
12516,500.054992675781
12520,500.065002441406
12524,500.067504882812
12528,500.075012207031
12532,500.084991455078
12536,500.079986572266
12540,500.077514648438
12544,500.079986572266
12548,500.079986572266
12552,500.092498779297
12556,500.102508544922
12560,500.092498779297
12564,500.100006103516
12568,500.092498779297
12572,500.092498779297
12576,500.105010986328
12580,500.125
12584,500.130004882812
12588,500.130004882812
12592,500.142486572266
12596,500.144989013672
12600,500.149993896484
12604,500.160003662109
12608,500.167510986328
12612,500.177490234375
12616,500.179992675781
12620,500.190002441406
12624,500.192504882812
12628,500.197509765625
12632,500.197509765625
12636,500.200012207031
12640,500.197509765625
12644,500.192504882812
12648,500.195007324219
12652,500.184997558594
12656,500.192504882812
12660,500.202514648438
12664,500.204986572266
12668,500.204986572266
12672,500.212493896484
12676,500.214996337891
12680,500.204986572266
12684,500.209991455078
12688,500.214996337891
12692,500.225006103516
12696,500.222503662109
12700,500.225006103516
12704,500.227508544922
12708,500.220001220703
12712,500.217498779297
12716,500.222503662109
12720,500.217498779297
12724,500.225006103516
12728,500.230010986328
12732,500.239990234375
12736,500.237487792969
12740,500.234985351562
12744,500.25
12748,500.25
12752,500.237487792969
12756,500.234985351562
12760,500.232513427734
12764,500.227508544922
12768,500.252502441406
12772,500.237487792969
12776,500.239990234375
12780,500.244995117188
12784,500.232513427734
12788,500.227508544922
12792,500.239990234375
12796,500.232513427734
12800,500.244995117188
12804,500.25
12808,500.25
12812,500.262512207031
12816,500.257507324219
12820,500.260009765625
12824,500.255004882812
12828,500.260009765625
12832,500.257507324219
12836,500.260009765625
12840,500.25
12844,500.247497558594
12848,500.242492675781
12852,500.232513427734
12856,500.220001220703
12860,500.225006103516
12864,500.227508544922
12868,500.242492675781
12872,500.247497558594
12876,500.247497558594
12880,500.244995117188
12884,500.230010986328
12888,500.237487792969
12892,500.225006103516
12896,500.222503662109
12900,500.222503662109
12904,500.214996337891
12908,500.217498779297
12912,500.214996337891
12916,500.209991455078
12920,500.207489013672
12924,500.197509765625
12928,500.197509765625
12932,500.204986572266
12936,500.207489013672
12940,500.207489013672
12944,500.202514648438
12948,500.202514648438
12952,500.190002441406
12956,500.197509765625
12960,500.195007324219
12964,500.197509765625
12968,500.197509765625
12972,500.197509765625
12976,500.195007324219
12980,500.204986572266
12984,500.197509765625
12988,500.195007324219
12992,500.182495117188
12996,500.165008544922
13000,500.112487792969
13004,500.049987792969
13008,499.972503662109
13012,499.890014648438
13016,499.815002441406
13020,499.762512207031
13024,499.727508544922
13028,499.679992675781
13032,499.619995117188
13036,499.579986572266
13040,499.559997558594
13044,499.570007324219
13048,499.595001220703
13052,499.647491455078
13056,499.732513427734
13060,499.845001220703
13064,499.980010986328
13068,500.102508544922
13072,500.227508544922
13076,500.345001220703
13080,500.459991455078
13084,500.549987792969
13088,500.627502441406
13092,500.674987792969
13096,500.720001220703
13100,500.720001220703
13104,500.692504882812
13108,500.640014648438
13112,500.589996337891
13116,500.547485351562
13120,500.5
13124,500.452514648438
13128,500.422485351562
13132,500.387512207031
13136,500.357513427734
13140,500.317504882812
13144,500.274993896484
13148,500.262512207031
13152,500.232513427734
13156,500.207489013672
13160,500.197509765625
13164,500.212493896484
13168,500.220001220703
13172,500.237487792969
13176,500.255004882812
13180,500.269989013672
13184,500.279998779297
13188,500.287506103516
13192,500.279998779297
13196,500.279998779297
13200,500.282501220703
13204,500.292510986328
13208,500.287506103516
13212,500.287506103516
13216,500.274993896484
13220,500.269989013672
13224,500.262512207031
13228,500.239990234375
13232,500.222503662109
13236,500.222503662109
13240,500.212493896484
13244,500.214996337891
13248,500.209991455078
13252,500.197509765625
13256,500.1875
13260,500.179992675781
13264,500.160003662109
13268,500.160003662109
13272,500.147491455078
13276,500.144989013672
13280,500.122497558594
13284,500.112487792969
13288,500.105010986328
13292,500.109985351562
13296,500.107513427734
13300,500.095001220703
13304,500.089996337891
13308,500.082489013672
13312,500.077514648438
13316,500.082489013672
13320,500.084991455078
13324,500.079986572266
13328,500.070007324219
13332,500.079986572266
13336,500.079986572266
13340,500.089996337891
13344,500.084991455078
13348,500.092498779297
13352,500.087493896484
13356,500.087493896484
13360,500.092498779297
13364,500.097503662109
13368,500.107513427734
13372,500.114990234375
13376,500.109985351562
13380,500.107513427734
13384,500.112487792969
13388,500.117492675781
13392,500.140014648438
13396,500.144989013672
13400,500.144989013672
13404,500.149993896484
13408,500.149993896484
13412,500.144989013672
13416,500.152496337891
13420,500.167510986328
13424,500.152496337891
13428,500.162506103516
13432,500.167510986328
13436,500.154998779297
13440,500.162506103516
13444,500.170013427734
13448,500.172485351562
13452,500.182495117188
13456,500.195007324219
13460,500.195007324219
13464,500.192504882812
13468,500.202514648438
13472,500.209991455078
13476,500.222503662109
13480,500.222503662109
13484,500.222503662109
13488,500.220001220703
13492,500.227508544922
13496,500.230010986328
13500,500.225006103516
13504,500.232513427734
13508,500.232513427734
13512,500.234985351562
13516,500.234985351562
13520,500.232513427734
13524,500.239990234375
13528,500.244995117188
13532,500.237487792969
13536,500.237487792969
13540,500.234985351562
13544,500.230010986328
13548,500.222503662109
13552,500.222503662109
13556,500.222503662109
13560,500.227508544922
13564,500.220001220703
13568,500.230010986328
13572,500.227508544922
13576,500.239990234375
13580,500.242492675781
13584,500.244995117188
13588,500.242492675781
13592,500.252502441406
13596,500.252502441406
13600,500.260009765625
13604,500.260009765625
13608,500.267486572266
13612,500.257507324219
13616,500.255004882812
13620,500.25
13624,500.237487792969
13628,500.237487792969
13632,500.225006103516
13636,500.220001220703
13640,500.214996337891
13644,500.204986572266
13648,500.209991455078
13652,500.209991455078
13656,500.227508544922
13660,500.230010986328
13664,500.234985351562
13668,500.230010986328
13672,500.232513427734
13676,500.232513427734
13680,500.217498779297
13684,500.190002441406
13688,500.182495117188
13692,500.1875
13696,500.197509765625
13700,500.217498779297
13704,500.230010986328
13708,500.244995117188
13712,500.244995117188
13716,500.247497558594
13720,500.230010986328
13724,500.225006103516
13728,500.214996337891
13732,500.197509765625
13736,500.192504882812
13740,500.1875
13744,500.190002441406
13748,500.1875
13752,500.177490234375
13756,500.177490234375
13760,500.162506103516
13764,500.170013427734
13768,500.182495117188
13772,500.209991455078
13776,500.209991455078
13780,500.197509765625
13784,500.157501220703
13788,500.079986572266
13792,499.994995117188
13796,499.912506103516
13800,499.815002441406
13804,499.747497558594
13808,499.695007324219
13812,499.635009765625
13816,499.575012207031
13820,499.529998779297
13824,499.494995117188
13828,499.492492675781
13832,499.505004882812
13836,499.557495117188
13840,499.635009765625
13844,499.742492675781
13848,499.882507324219
13852,500.022491455078
13856,500.149993896484
13860,500.265014648438
13864,500.369995117188
13868,500.475006103516
13872,500.559997558594
13876,500.614990234375
13880,500.647491455078
13884,500.674987792969
13888,500.665008544922
13892,500.644989013672
13896,500.592498779297
13900,500.552490234375
13904,500.494995117188
13908,500.457489013672
13912,500.424987792969
13916,500.410003662109
13920,500.380004882812
13924,500.359985351562
13928,500.339996337891
13932,500.329986572266
13936,500.307495117188
13940,500.292510986328
13944,500.285003662109
13948,500.277496337891
13952,500.292510986328
13956,500.299987792969
13960,500.304992675781
13964,500.317504882812
13968,500.327514648438
13972,500.332489013672
13976,500.337493896484
13980,500.329986572266
13984,500.332489013672
13988,500.320007324219
13992,500.309997558594
13996,500.302490234375
14000,500.290008544922
14004,500.269989013672
14008,500.239990234375
14012,500.217498779297
14016,500.212493896484
14020,500.202514648438
14024,500.217498779297
14028,500.212493896484
14032,500.225006103516
14036,500.209991455078
14040,500.202514648438
14044,500.200012207031
14048,500.202514648438
14052,500.200012207031
14056,500.197509765625
14060,500.177490234375
14064,500.179992675781
14068,500.165008544922
14072,500.167510986328
14076,500.149993896484
14080,500.154998779297
14084,500.147491455078
14088,500.140014648438
14092,500.135009765625
14096,500.130004882812
14100,500.142486572266
14104,500.135009765625
14108,500.149993896484
14112,500.144989013672
14116,500.147491455078
14120,500.162506103516
14124,500.170013427734
14128,500.172485351562
14132,500.174987792969
14136,500.179992675781
14140,500.184997558594
14144,500.192504882812
14148,500.200012207031
14152,500.214996337891
14156,500.230010986328
14160,500.247497558594
14164,500.260009765625
14168,500.267486572266
14172,500.285003662109
14176,500.279998779297
14180,500.287506103516
14184,500.279998779297
14188,500.297485351562
14192,500.302490234375
14196,500.302490234375
14200,500.317504882812
14204,500.309997558594
14208,500.309997558594
14212,500.309997558594
14216,500.3125
14220,500.304992675781
14224,500.304992675781
14228,500.307495117188
14232,500.302490234375
14236,500.297485351562
14240,500.3125
14244,500.307495117188
14248,500.304992675781
14252,500.325012207031
14256,500.309997558594
14260,500.320007324219
14264,500.325012207031
14268,500.329986572266
14272,500.325012207031
14276,500.320007324219
14280,500.345001220703
14284,500.339996337891
14288,500.329986572266
14292,500.332489013672
14296,500.347503662109
14300,500.347503662109
14304,500.329986572266
14308,500.322509765625
14312,500.327514648438
14316,500.334991455078
14320,500.327514648438
14324,500.337493896484
14328,500.329986572266
14332,500.334991455078
14336,500.332489013672
14340,500.332489013672
14344,500.329986572266
14348,500.322509765625
14352,500.332489013672
14356,500.332489013672
14360,500.334991455078
14364,500.339996337891
14368,500.337493896484
14372,500.345001220703
14376,500.337493896484
14380,500.342498779297
14384,500.350006103516
14388,500.362487792969
14392,500.369995117188
14396,500.364990234375
14400,500.357513427734
14404,500.357513427734
14408,500.347503662109
14412,500.355010986328
14416,500.352508544922
14420,500.347503662109
14424,500.339996337891
14428,500.332489013672
14432,500.332489013672
14436,500.339996337891
14440,500.342498779297
14444,500.347503662109
14448,500.332489013672
14452,500.327514648438
14456,500.299987792969
14460,500.285003662109
14464,500.260009765625
14468,500.25
14472,500.252502441406
14476,500.265014648438
14480,500.285003662109
14484,500.302490234375
14488,500.297485351562
14492,500.274993896484
14496,500.239990234375
14500,500.227508544922
14504,500.242492675781
14508,500.282501220703
14512,500.302490234375
14516,500.272491455078
14520,500.237487792969
14524,500.232513427734
14528,500.255004882812
14532,500.304992675781
14536,500.329986572266
14540,500.342498779297
14544,500.332489013672
14548,500.320007324219
14552,500.307495117188
14556,500.292510986328
14560,500.269989013672
14564,500.25
14568,500.217498779297
14572,500.147491455078
14576,500.084991455078
14580,500.019989013672
14584,499.950012207031
14588,499.875
14592,499.847503662109
14596,499.850006103516
14600,499.855010986328
14604,499.837493896484
14608,499.787506103516
14612,499.717498779297
14616,499.672485351562
14620,499.642486572266
14624,499.654998779297
14628,499.717498779297
14632,499.822509765625
14636,499.947509765625
14640,500.079986572266
14644,500.202514648438
14648,500.327514648438
14652,500.4375
14656,500.540008544922
14660,500.635009765625
14664,500.6875
14668,500.737487792969
14672,500.765014648438
14676,500.765014648438
14680,500.742492675781
14684,500.684997558594
14688,500.632507324219
14692,500.575012207031
14696,500.522491455078
14700,500.484985351562
14704,500.457489013672
14708,500.450012207031
14712,500.434997558594
14716,500.412506103516
14720,500.385009765625
14724,500.350006103516
14728,500.295013427734
14732,500.244995117188
14736,500.239990234375
14740,500.287506103516
14744,500.322509765625
14748,500.347503662109
14752,500.352508544922
14756,500.367492675781
14760,500.387512207031
14764,500.412506103516
14768,500.440002441406
14772,500.427490234375
14776,500.407501220703
14780,500.399993896484
14784,500.382507324219
14788,500.367492675781
14792,500.362487792969
14796,500.342498779297
14800,500.329986572266
14804,500.307495117188
14808,500.269989013672
14812,500.252502441406
14816,500.244995117188
14820,500.257507324219
14824,500.272491455078
14828,500.262512207031
14832,500.244995117188
14836,500.232513427734
14840,500.227508544922
14844,500.222503662109
14848,500.209991455078
14852,500.190002441406
14856,500.174987792969
14860,500.165008544922
14864,500.147491455078
14868,500.130004882812
14872,500.117492675781
14876,500.132507324219
14880,500.147491455078
14884,500.154998779297
14888,500.160003662109
14892,500.157501220703
14896,500.174987792969
14900,500.167510986328
14904,500.152496337891
14908,500.147491455078
14912,500.149993896484
14916,500.162506103516
14920,500.167510986328
14924,500.154998779297
14928,500.147491455078
14932,500.132507324219
14936,500.130004882812
14940,500.127502441406
14944,500.142486572266
14948,500.152496337891
14952,500.165008544922
14956,500.184997558594
14960,500.1875
14964,500.184997558594
14968,500.192504882812
14972,500.195007324219
14976,500.225006103516
14980,500.244995117188
14984,500.25
14988,500.257507324219
14992,500.242492675781
14996,500.234985351562
15000,500.237487792969
15004,500.252502441406
15008,500.257507324219
15012,500.257507324219
15016,500.262512207031
15020,500.260009765625
15024,500.257507324219
15028,500.247497558594
15032,500.239990234375
15036,500.237487792969
15040,500.239990234375
15044,500.244995117188
15048,500.237487792969
15052,500.237487792969
15056,500.230010986328
15060,500.239990234375
15064,500.242492675781
15068,500.242492675781
15072,500.239990234375
15076,500.252502441406
15080,500.277496337891
15084,500.302490234375
15088,500.304992675781
15092,500.307495117188
15096,500.302490234375
15100,500.290008544922
15104,500.279998779297
15108,500.285003662109
15112,500.272491455078
15116,500.269989013672
15120,500.260009765625
15124,500.25
15128,500.260009765625
15132,500.262512207031
15136,500.255004882812
15140,500.247497558594
15144,500.244995117188
15148,500.244995117188
15152,500.255004882812
15156,500.244995117188
15160,500.237487792969
15164,500.230010986328
15168,500.25
15172,500.265014648438
15176,500.282501220703
15180,500.307495117188
15184,500.317504882812
15188,500.315002441406
15192,500.307495117188
15196,500.302490234375
15200,500.297485351562
15204,500.295013427734
15208,500.269989013672
15212,500.267486572266
15216,500.244995117188
15220,500.237487792969
15224,500.239990234375
15228,500.239990234375
15232,500.239990234375
15236,500.247497558594
15240,500.227508544922
15244,500.242492675781
15248,500.239990234375
15252,500.255004882812
15256,500.257507324219
15260,500.255004882812
15264,500.244995117188
15268,500.230010986328
15272,500.242492675781
15276,500.239990234375
15280,500.252502441406
15284,500.247497558594
15288,500.244995117188
15292,500.234985351562
15296,500.225006103516
15300,500.217498779297
15304,500.212493896484
15308,500.195007324219
15312,500.1875
15316,500.200012207031
15320,500.220001220703
15324,500.222503662109
15328,500.222503662109
15332,500.212493896484
15336,500.202514648438
15340,500.190002441406
15344,500.184997558594
15348,500.197509765625
15352,500.192504882812
15356,500.1875
15360,500.179992675781
15364,500.190002441406
15368,500.162506103516
15372,500.125
15376,500.057495117188
15380,499.970001220703
15384,499.867492675781
15388,499.787506103516
15392,499.730010986328
15396,499.684997558594
15400,499.640014648438
15404,499.597503662109
15408,499.547485351562
15412,499.517486572266
15416,499.519989013672
15420,499.549987792969
15424,499.587493896484
15428,499.657501220703
15432,499.755004882812
15436,499.877502441406
15440,500.012512207031
15444,500.135009765625
15448,500.247497558594
15452,500.355010986328
15456,500.442504882812
15460,500.507507324219
15464,500.567504882812
15468,500.614990234375
15472,500.640014648438
15476,500.622497558594
15480,500.587493896484
15484,500.554992675781
15488,500.522491455078
15492,500.477508544922
15496,500.452514648438
15500,500.412506103516
15504,500.385009765625
15508,500.362487792969
15512,500.339996337891
15516,500.302490234375
15520,500.282501220703
15524,500.257507324219
15528,500.230010986328
15532,500.220001220703
15536,500.222503662109
15540,500.220001220703
15544,500.239990234375
15548,500.252502441406
15552,500.277496337891
15556,500.285003662109
15560,500.292510986328
15564,500.292510986328
15568,500.287506103516
15572,500.287506103516
15576,500.282501220703
15580,500.285003662109
15584,500.285003662109
15588,500.290008544922
15592,500.272491455078
15596,500.255004882812
15600,500.247497558594
15604,500.237487792969
15608,500.222503662109
15612,500.209991455078
15616,500.192504882812
15620,500.177490234375
15624,500.165008544922
15628,500.160003662109
15632,500.160003662109
15636,500.152496337891
15640,500.127502441406
15644,500.122497558594
15648,500.119995117188
15652,500.125
15656,500.117492675781
15660,500.117492675781
15664,500.112487792969
15668,500.102508544922
15672,500.097503662109
15676,500.097503662109
15680,500.079986572266
15684,500.067504882812
15688,500.072509765625
15692,500.075012207031
15696,500.082489013672
15700,500.077514648438
15704,500.072509765625
15708,500.065002441406
15712,500.070007324219
15716,500.075012207031
15720,500.084991455078
15724,500.092498779297
15728,500.102508544922
15732,500.102508544922
15736,500.097503662109
15740,500.107513427734
15744,500.102508544922
15748,500.105010986328
15752,500.109985351562
15756,500.119995117188
15760,500.140014648438
15764,500.144989013672
15768,500.160003662109
15772,500.167510986328
15776,500.170013427734
15780,500.165008544922
15784,500.167510986328
15788,500.165008544922
15792,500.170013427734
15796,500.182495117188
15800,500.172485351562
15804,500.177490234375
15808,500.177490234375
15812,500.172485351562
15816,500.170013427734
15820,500.179992675781
15824,500.190002441406
15828,500.182495117188
15832,500.182495117188
15836,500.177490234375
15840,500.1875
15844,500.1875
15848,500.200012207031
15852,500.204986572266
15856,500.207489013672
15860,500.212493896484
15864,500.209991455078
15868,500.214996337891
15872,500.204986572266
15876,500.212493896484
15880,500.214996337891
15884,500.204986572266
15888,500.212493896484
15892,500.214996337891
15896,500.212493896484
15900,500.207489013672
15904,500.214996337891
15908,500.220001220703
15912,500.222503662109
15916,500.225006103516
15920,500.220001220703
15924,500.222503662109
15928,500.225006103516
15932,500.232513427734
15936,500.234985351562
15940,500.242492675781
15944,500.237487792969
15948,500.234985351562
15952,500.239990234375
15956,500.247497558594
15960,500.25
15964,500.260009765625
15968,500.262512207031
15972,500.25
15976,500.244995117188
15980,500.239990234375
15984,500.25
15988,500.25
15992,500.242492675781
15996,500.234985351562
16000,500.222503662109
16004,500.207489013672
16008,500.192504882812
16012,500.202514648438
16015,500.212493896484
16020,500.222503662109
16024,500.237487792969
16027,500.227508544922
16032,500.232513427734
16036,500.222503662109
16040,500.212493896484
16044,500.202514648438
16047,500.204986572266
16052,500.209991455078
16056,500.212493896484
16059,500.209991455078
16064,500.209991455078
16068,500.209991455078
16072,500.207489013672
16076,500.214996337891
16079,500.209991455078
16084,500.209991455078
16088,500.220001220703
16091,500.214996337891
16096,500.195007324219
16100,500.182495117188
16104,500.179992675781
16108,500.174987792969
16111,500.172485351562
16116,500.174987792969
16120,500.179992675781
16123,500.184997558594
16128,500.195007324219
16132,500.1875
16136,500.177490234375
16140,500.172485351562
16143,500.167510986328
16148,500.177490234375
16152,500.157501220703
16155,500.132507324219
16160,500.082489013672
16164,499.992492675781
16168,499.912506103516
16172,499.852508544922
16175,499.822509765625
16180,499.785003662109
16184,499.760009765625
16187,499.712493896484
16192,499.657501220703
16196,499.635009765625
16200,499.642486572266
16204,499.677490234375
16207,499.737487792969
16212,499.850006103516
16216,499.972503662109
16219,500.105010986328
16224,500.230010986328
16228,500.355010986328
16232,500.464996337891
16236,500.565002441406
16239,500.647491455078
16244,500.720001220703
16248,500.769989013672
16251,500.787506103516
16256,500.777496337891
16260,500.732513427734
16264,500.667510986328
16268,500.617492675781
16271,500.572509765625
16276,500.519989013672
16280,500.482513427734
16283,500.440002441406
16288,500.390014648438
16292,500.362487792969
16296,500.317504882812
16300,500.282501220703
16303,500.265014648438
16308,500.239990234375
16312,500.227508544922
16315,500.204986572266
16320,500.204986572266
16324,500.214996337891
16328,500.220001220703
16332,500.237487792969
16335,500.25
16340,500.269989013672
16344,500.282501220703
16347,500.292510986328
16352,500.290008544922
16356,500.297485351562
16360,500.290008544922
16364,500.279998779297
16367,500.277496337891
16372,500.277496337891
16376,500.277496337891
16379,500.279998779297
16384,500.272491455078
16388,500.277496337891
16392,500.252502441406
16396,500.237487792969
16400,500.232513427734
16404,500.225006103516
16408,500.225006103516
16412,500.217498779297
16416,500.217498779297
16420,500.207489013672
16424,500.202514648438
16428,500.174987792969
16432,500.167510986328
16436,500.167510986328
16440,500.167510986328
16444,500.160003662109
16448,500.152496337891
16452,500.144989013672
16456,500.142486572266
16460,500.142486572266
16464,500.147491455078
16468,500.162506103516
16472,500.149993896484
16476,500.137512207031
16480,500.132507324219
16484,500.149993896484
16488,500.152496337891
16492,500.152496337891
16496,500.154998779297
16500,500.154998779297
16504,500.154998779297
16508,500.172485351562
16512,500.179992675781
16516,500.184997558594
16520,500.184997558594
16524,500.1875
16528,500.177490234375
16532,500.192504882812
16536,500.190002441406
16540,500.197509765625
16544,500.195007324219
16548,500.202514648438
16552,500.207489013672
16556,500.207489013672
16560,500.214996337891
16564,500.209991455078
16568,500.214996337891
16572,500.212493896484
16576,500.225006103516
16580,500.230010986328
16584,500.230010986328
16588,500.227508544922
16592,500.234985351562
16596,500.239990234375
16600,500.239990234375
16604,500.252502441406
16608,500.247497558594
16612,500.262512207031
16616,500.257507324219
16620,500.25
16624,500.247497558594
16628,500.269989013672
16632,500.274993896484
16636,500.277496337891
16640,500.282501220703
16644,500.285003662109
16648,500.295013427734
16652,500.279998779297
16656,500.274993896484
16660,500.272491455078
16664,500.279998779297
16668,500.277496337891
16672,500.269989013672
16676,500.287506103516
16680,500.287506103516
16684,500.287506103516
16688,500.295013427734
16692,500.285003662109
16696,500.297485351562
16700,500.304992675781
16704,500.297485351562
16708,500.299987792969
16712,500.304992675781
16716,500.307495117188
16720,500.307495117188
16724,500.304992675781
16728,500.307495117188
16732,500.295013427734
16736,500.295013427734
16740,500.297485351562
16744,500.307495117188
16748,500.322509765625
16752,500.342498779297
16756,500.347503662109
16760,500.345001220703
16764,500.339996337891
16768,500.339996337891
16772,500.332489013672
16776,500.327514648438
16780,500.327514648438
16784,500.3125
16788,500.320007324219
16792,500.327514648438
16796,500.337493896484
16800,500.329986572266
16804,500.322509765625
16808,500.329986572266
16812,500.320007324219
16816,500.3125
16820,500.302490234375
16824,500.285003662109
16828,500.277496337891
16832,500.282501220703
16836,500.274993896484
16840,500.274993896484
16844,500.267486572266
16848,500.272491455078
16852,500.274993896484
16856,500.269989013672
16860,500.277496337891
16864,500.282501220703
16868,500.285003662109
16872,500.287506103516
16876,500.290008544922
16880,500.282501220703
16884,500.272491455078
16888,500.274993896484
16892,500.262512207031
16896,500.262512207031
16900,500.260009765625
16904,500.260009765625
16908,500.265014648438
16912,500.272491455078
16916,500.267486572266
16920,500.269989013672
16924,500.257507324219
16928,500.239990234375
16932,500.197509765625
16936,500.135009765625
16940,500.047485351562
16944,499.977508544922
16948,499.917510986328
16952,499.875
16956,499.829986572266
16960,499.767486572266
16964,499.717498779297
16968,499.682495117188
16972,499.657501220703
16976,499.657501220703
16980,499.697509765625
16984,499.755004882812
16988,499.864990234375
16992,500
16996,500.147491455078
17000,500.274993896484
17004,500.399993896484
17008,500.5
17012,500.607513427734
17016,500.677490234375
17020,500.739990234375
17024,500.790008544922
17028,500.802490234375
17032,500.782501220703
17036,500.744995117188
17040,500.684997558594
17044,500.630004882812
17048,500.565002441406
17052,500.524993896484
17056,500.484985351562
17060,500.445007324219
17064,500.420013427734
17068,500.394989013672
17072,500.355010986328
17076,500.334991455078
17080,500.309997558594
17084,500.292510986328
17088,500.269989013672
17092,500.269989013672
17096,500.269989013672
17100,500.272491455078
17104,500.285003662109
17108,500.297485351562
17112,500.297485351562
17116,500.299987792969
17120,500.307495117188
17124,500.304992675781
17128,500.315002441406
17132,500.3125
17136,500.304992675781
17140,500.292510986328
17144,500.274993896484
17148,500.274993896484
17152,500.272491455078
17156,500.272491455078
17160,500.272491455078
17164,500.242492675781
17168,500.239990234375
17172,500.220001220703
17176,500.217498779297
17180,500.204986572266
17184,500.1875
17188,500.172485351562
17192,500.162506103516
17196,500.154998779297
17200,500.152496337891
17204,500.127502441406
17208,500.109985351562
17212,500.095001220703
17216,500.087493896484
17220,500.079986572266
17224,500.077514648438
17228,500.067504882812
17232,500.049987792969
17236,500.040008544922
17240,500.052490234375
17244,500.052490234375
17248,500.049987792969
17252,500.029998779297
17256,500.019989013672
17260,499.989990234375
17264,499.970001220703
17268,499.977508544922
17272,500.002502441406
17276,500.029998779297
17280,500.054992675781
17284,500.0625
17288,500.077514648438
17292,500.100006103516
17296,500.147491455078
17300,500.157501220703
17304,500.160003662109
17308,500.152496337891
17312,500.140014648438
17316,500.140014648438
17320,500.142486572266
17324,500.142486572266
17328,500.147491455078
17332,500.132507324219
17336,500.140014648438
17340,500.147491455078
17344,500.147491455078
17348,500.149993896484
17352,500.149993896484
17356,500.154998779297
17360,500.157501220703
17364,500.160003662109
17368,500.160003662109
17372,500.162506103516
17376,500.172485351562
17380,500.179992675781
17384,500.182495117188
17388,500.190002441406
17392,500.195007324219
17396,500.184997558594
17400,500.184997558594
17404,500.174987792969
17408,500.177490234375
17412,500.184997558594
17416,500.160003662109
17420,500.149993896484
17424,500.170013427734
17428,500.212493896484
17432,500.247497558594
17436,500.260009765625
17440,500.260009765625
17444,500.252502441406
17448,500.257507324219
17452,500.257507324219
17456,500.262512207031
17460,500.260009765625
17464,500.25
17468,500.239990234375
17472,500.244995117188
17476,500.244995117188
17480,500.255004882812
17484,500.257507324219
17488,500.260009765625
17492,500.257507324219
17496,500.260009765625
17500,500.257507324219
17504,500.269989013672
17508,500.265014648438
17512,500.277496337891
17516,500.269989013672
17520,500.262512207031
17524,500.257507324219
17528,500.265014648438
17532,500.262512207031
17536,500.267486572266
17540,500.265014648438
17544,500.255004882812
17548,500.260009765625
17552,500.239990234375
17556,500.247497558594
17560,500.232513427734
17564,500.220001220703
17568,500.209991455078
17572,500.222503662109
17576,500.232513427734
17580,500.252502441406
17584,500.247497558594
17588,500.227508544922
17592,500.179992675781
17596,500.149993896484
17600,500.127502441406
17604,500.137512207031
17608,500.154998779297
17612,500.174987792969
17616,500.200012207031
17620,500.209991455078
17624,500.202514648438
17628,500.207489013672
17632,500.197509765625
17636,500.195007324219
17640,500.174987792969
17644,500.167510986328
17648,500.157501220703
17652,500.154998779297
17656,500.144989013672
17660,500.135009765625
17664,500.119995117188
17668,500.112487792969
17672,500.114990234375
17676,500.114990234375
17680,500.125
17684,500.137512207031
17688,500.144989013672
17692,500.137512207031
17696,500.135009765625
17700,500.122497558594
17704,500.109985351562
17708,500.067504882812
17712,500.007507324219
17716,499.922485351562
17720,499.832489013672
17724,499.772491455078
17728,499.727508544922
17732,499.674987792969
17736,499.622497558594
17740,499.554992675781
17744,499.535003662109
17748,499.532501220703
17752,499.557495117188
17756,499.595001220703
17760,499.662506103516
17764,499.779998779297
17768,499.934997558594
17772,500.079986572266
17776,500.212493896484
17780,500.327514648438
17784,500.422485351562
17788,500.510009765625
17792,500.587493896484
17796,500.649993896484
17800,500.690002441406
17804,500.704986572266
17808,500.690002441406
17812,500.647491455078
17816,500.587493896484
17820,500.545013427734
17824,500.480010986328
17828,500.417510986328
17832,500.380004882812
17836,500.339996337891
17840,500.299987792969
17844,500.269989013672
17848,500.239990234375
17852,500.220001220703
17856,500.207489013672
17860,500.1875
17864,500.167510986328
17868,500.160003662109
17872,500.174987792969
17876,500.192504882812
17880,500.200012207031
17884,500.207489013672
17888,500.207489013672
17892,500.212493896484
17896,500.220001220703
17900,500.237487792969
17904,500.234985351562
17908,500.232513427734
17912,500.222503662109
17916,500.212493896484
17920,500.200012207031
17924,500.192504882812
17928,500.177490234375
17932,500.160003662109
17936,500.154998779297
17940,500.157501220703
17944,500.179992675781
17948,500.172485351562
17952,500.170013427734
17956,500.157501220703
17960,500.135009765625
17964,500.119995117188
17968,500.119995117188
17972,500.100006103516
17976,500.100006103516
17980,500.075012207031
17984,500.077514648438
17988,500.072509765625
17992,500.059997558594
17996,500.049987792969
18000,500.054992675781
18004,500.049987792969
18008,500.065002441406
18012,500.052490234375
18016,500.047485351562
18020,500.035003662109
18024,500.045013427734
18028,500.072509765625
18032,500.092498779297
18036,500.100006103516
18040,500.105010986328
18044,500.089996337891
18048,500.092498779297
18052,500.097503662109
18056,500.097503662109
18060,500.095001220703
18064,500.107513427734
18068,500.109985351562
18072,500.114990234375
18076,500.122497558594
18080,500.127502441406
18084,500.122497558594
18088,500.130004882812
18092,500.142486572266
18096,500.147491455078
18100,500.160003662109
18104,500.167510986328
18108,500.162506103516
18112,500.167510986328
18116,500.174987792969
18120,500.182495117188
18124,500.182495117188
18128,500.192504882812
18132,500.192504882812
18136,500.174987792969
18140,500.152496337891
18144,500.144989013672
18148,500.154998779297
18152,500.172485351562
18156,500.217498779297
18160,500.232513427734
18164,500.239990234375
18168,500.237487792969
18172,500.232513427734
18176,500.239990234375
18180,500.230010986328
18184,500.239990234375
18188,500.222503662109
18192,500.207489013672
18196,500.197509765625
18200,500.195007324219
18204,500.184997558594
18208,500.1875
18212,500.177490234375
18216,500.177490234375
18220,500.190002441406
18224,500.217498779297
18228,500.239990234375
18232,500.232513427734
18236,500.227508544922
18240,500.230010986328
18244,500.230010986328
18248,500.230010986328
18252,500.237487792969
18256,500.227508544922
18260,500.217498779297
18264,500.204986572266
18268,500.222503662109
18272,500.222503662109
18276,500.212493896484
18280,500.214996337891
18284,500.225006103516
18288,500.242492675781
18292,500.267486572266
18296,500.272491455078
18300,500.277496337891
18304,500.282501220703
18308,500.279998779297
18312,500.265014648438
18316,500.25
18320,500.234985351562
18324,500.227508544922
18328,500.225006103516
18332,500.220001220703
18336,500.204986572266
18340,500.200012207031
18344,500.204986572266
18348,500.204986572266
18352,500.204986572266
18356,500.195007324219
18360,500.220001220703
18364,500.212493896484
18368,500.212493896484
18372,500.204986572266
18376,500.217498779297
18380,500.207489013672
18384,500.190002441406
18388,500.174987792969
18392,500.167510986328
18396,500.174987792969
18400,500.179992675781
18404,500.197509765625
18408,500.1875
18412,500.197509765625
18416,500.190002441406
18420,500.192504882812
18424,500.182495117188
18428,500.182495117188
18432,500.184997558594
18436,500.184997558594
18440,500.179992675781
18444,500.1875
18448,500.177490234375
18452,500.170013427734
18456,500.160003662109
18460,500.157501220703
18464,500.149993896484
18468,500.160003662109
18472,500.160003662109
18476,500.160003662109
18480,500.152496337891
18484,500.132507324219
18488,500.092498779297
18492,500.037506103516
18496,499.940002441406
18500,499.829986572266
18504,499.742492675781
18508,499.700012207031
18512,499.684997558594
18516,499.679992675781
18520,499.660003662109
18524,499.630004882812
18528,499.605010986328
18532,499.589996337891
18536,499.607513427734
18540,499.660003662109
18544,499.739990234375
18548,499.875
18552,500.010009765625
18556,500.154998779297
18560,500.290008544922
18564,500.399993896484
18568,500.482513427734
18572,500.575012207031
18576,500.657501220703
18580,500.717498779297
18584,500.787506103516
18588,500.797485351562
18592,500.777496337891
18596,500.712493896484
18600,500.640014648438
18604,500.600006103516
18608,500.557495117188
18612,500.517486572266
18616,500.487487792969
18620,500.459991455078
18624,500.417510986328
18628,500.357513427734
18632,500.325012207031
18636,500.269989013672
18640,500.242492675781
18644,500.225006103516
18648,500.1875
18652,500.179992675781
18656,500.174987792969
18660,500.170013427734
18664,500.172485351562
18668,500.184997558594
18672,500.207489013672
18676,500.222503662109
18680,500.230010986328
18684,500.247497558594
18688,500.262512207031
18692,500.267486572266
18696,500.252502441406
18700,500.242492675781
18704,500.232513427734
18708,500.217498779297
18712,500.200012207031
18716,500.1875
18720,500.184997558594
18724,500.174987792969
18728,500.160003662109
18732,500.132507324219
18736,500.105010986328
18740,500.092498779297
18744,500.095001220703
18748,500.089996337891
18752,500.079986572266
18756,500.075012207031
18760,500.065002441406
18764,500.049987792969
18768,500.049987792969
18772,500.045013427734
18776,500.047485351562
18780,500.049987792969
18784,500.065002441406
18788,500.0625
18792,500.059997558594
18796,500.037506103516
18800,500.027496337891
18804,500.010009765625
18808,500.017486572266
18812,500.019989013672
18816,500.005004882812
18820,500.010009765625
18824,500.012512207031
18828,500.007507324219
18832,500.024993896484
18836,500.047485351562
18840,500.079986572266
18844,500.084991455078
18848,500.084991455078
18852,500.089996337891
18856,500.100006103516
18860,500.112487792969
18864,500.119995117188
18868,500.117492675781
18872,500.127502441406
18876,500.125
18880,500.119995117188
18884,500.130004882812
18888,500.142486572266
18892,500.127502441406
18896,500.135009765625
18900,500.122497558594
18904,500.135009765625
18908,500.140014648438
18912,500.144989013672
18916,500.152496337891
18920,500.154998779297
18924,500.152496337891
18928,500.160003662109
18932,500.160003662109
18936,500.170013427734
18940,500.179992675781
18944,500.170013427734
18948,500.157501220703
18952,500.165008544922
18956,500.165008544922
18960,500.177490234375
18964,500.172485351562
18968,500.182495117188
18972,500.179992675781
18976,500.174987792969
18980,500.177490234375
18984,500.190002441406
18988,500.1875
18992,500.1875
18996,500.197509765625
19000,500.192504882812
19004,500.200012207031
19008,500.200012207031
19012,500.192504882812
19016,500.182495117188
19020,500.1875
19024,500.190002441406
19028,500.182495117188
19032,500.167510986328
19036,500.137512207031
19040,500.122497558594
19044,500.122497558594
19048,500.154998779297
19052,500.197509765625
19056,500.217498779297
19060,500.227508544922
19064,500.222503662109
19068,500.195007324219
19072,500.1875
19076,500.172485351562
19080,500.190002441406
19084,500.212493896484
19088,500.237487792969
19092,500.239990234375
19096,500.252502441406
19100,500.242492675781
19104,500.227508544922
19108,500.207489013672
19112,500.174987792969
19116,500.149993896484
19120,500.125
19124,500.107513427734
19128,500.089996337891
19132,500.089996337891
19136,500.142486572266
19140,500.179992675781
19144,500.217498779297
19148,500.217498779297
19152,500.207489013672
19156,500.204986572266
19160,500.232513427734
19164,500.232513427734
19168,500.232513427734
19172,500.207489013672
19176,500.177490234375
19180,500.172485351562
19184,500.152496337891
19188,500.140014648438
19192,500.132507324219
19196,500.125
19200,500.125
19204,500.137512207031
19208,500.137512207031
19212,500.135009765625
19216,500.132507324219
19220,500.132507324219
19224,500.140014648438
19228,500.130004882812
19232,500.125
19236,500.102508544922
19240,500.102508544922
19244,500.100006103516
19248,500.112487792969
19252,500.114990234375
19256,500.112487792969
19260,500.112487792969
19264,500.095001220703
19268,500.087493896484
19272,500.072509765625
19276,500.037506103516
19280,499.994995117188
19284,499.907501220703
19288,499.8125
19292,499.725006103516
19296,499.660003662109
19300,499.609985351562
19304,499.567504882812
19308,499.535003662109
19312,499.5
19316,499.482513427734
19320,499.475006103516
19324,499.487487792969
19328,499.512512207031
19332,499.577514648438
19336,499.679992675781
19340,499.804992675781
19344,499.940002441406
19348,500.0625
19352,500.174987792969
19356,500.297485351562
19360,500.390014648438
19364,500.467498779297
19368,500.532501220703
19372,500.592498779297
19376,500.612487792969
19380,500.605010986328
19384,500.567504882812
19388,500.524993896484
19392,500.454986572266
19396,500.399993896484
19400,500.342498779297
19404,500.309997558594
19408,500.277496337891
19412,500.257507324219
19416,500.227508544922
19420,500.1875
19424,500.157501220703
19428,500.122497558594
19432,500.117492675781
19436,500.117492675781
19440,500.137512207031
19444,500.154998779297
19448,500.170013427734
19452,500.1875
19456,500.200012207031
19460,500.204986572266
19464,500.200012207031
19468,500.209991455078
19472,500.209991455078
19476,500.204986572266
19480,500.195007324219
19484,500.197509765625
19488,500.192504882812
19492,500.1875
19496,500.179992675781
19500,500.177490234375
19504,500.154998779297
19508,500.157501220703
19512,500.142486572266
19516,500.130004882812
19520,500.114990234375
19524,500.100006103516
19528,500.084991455078
19532,500.065002441406
19536,500.067504882812
19540,500.052490234375
19544,500.040008544922
19548,500.042510986328
19552,500.037506103516
19556,500.037506103516
19560,500.042510986328
19564,500.047485351562
19568,500.057495117188
19572,500.057495117188
19576,500.049987792969
19580,500.045013427734
19584,500.037506103516
19588,500.037506103516
19592,500.035003662109
19596,500.022491455078
19600,500.015014648438
19604,500.007507324219
19608,500.012512207031
19612,500.007507324219
19616,500.015014648438
19620,500.012512207031
19624,500.005004882812
19628,500.012512207031
19632,500.015014648438
19636,500.019989013672
19640,500.022491455078
19644,500.035003662109
19648,500.024993896484
19652,500.037506103516
19656,500.042510986328
19660,500.045013427734
19664,500.035003662109
19668,500.045013427734
19672,500.047485351562
19676,500.040008544922
19680,500.052490234375
19684,500.042510986328
19688,500.057495117188
19692,500.0625
19696,500.084991455078
19700,500.100006103516
19704,500.105010986328
19708,500.092498779297
19712,500.102508544922
19716,500.097503662109
19720,500.107513427734
19724,500.100006103516
19728,500.107513427734
19732,500.102508544922
19736,500.109985351562
19740,500.097503662109
19744,500.105010986328
19748,500.107513427734
19752,500.100006103516
19756,500.105010986328
19760,500.102508544922
19764,500.107513427734
19768,500.112487792969
19772,500.109985351562
19776,500.117492675781
19780,500.109985351562
19784,500.119995117188
19788,500.100006103516
19792,500.100006103516
19796,500.112487792969
19800,500.130004882812
19804,500.135009765625
19808,500.147491455078
19812,500.160003662109
19816,500.157501220703
19820,500.157501220703
19824,500.147491455078
19828,500.140014648438
19832,500.132507324219
19836,500.135009765625
19840,500.125
19844,500.132507324219
19848,500.135009765625
19852,500.135009765625
19856,500.149993896484
19860,500.152496337891
19864,500.160003662109
19868,500.160003662109
19872,500.167510986328
19876,500.167510986328
19880,500.167510986328
19884,500.174987792969
19888,500.172485351562
19892,500.152496337891
19896,500.135009765625
19900,500.142486572266
19904,500.140014648438
19908,500.137512207031
19912,500.135009765625
19916,500.135009765625
19920,500.140014648438
19924,500.154998779297
19928,500.167510986328
19932,500.162506103516
19936,500.170013427734
19940,500.170013427734
19944,500.160003662109
19948,500.142486572266
19952,500.135009765625
19956,500.132507324219
19960,500.122497558594
19964,500.114990234375
19968,500.117492675781
19972,500.107513427734
19976,500.102508544922
19980,500.105010986328
19984,500.109985351562
19988,500.114990234375
19992,500.114990234375
19996,500.105010986328
20000,500.102508544922
20004,500.082489013672
20008,500.072509765625
20012,500.082489013672
20016,500.087493896484
20020,500.097503662109
20024,500.107513427734
20028,500.109985351562
20032,500.130004882812
20036,500.132507324219
20040,500.119995117188
20044,500.102508544922
20048,500.105010986328
20052,500.100006103516
20056,500.100006103516
20060,500.102508544922
20064,500.077514648438
20068,500.015014648438
20072,499.942504882812
20076,499.859985351562
20080,499.792510986328
20084,499.730010986328
20088,499.682495117188
20092,499.625
20096,499.567504882812
20100,499.537506103516
20104,499.510009765625
20108,499.502502441406
20112,499.522491455078
20116,499.579986572266
20120,499.660003662109
20124,499.769989013672
20128,499.907501220703
20132,500.045013427734
20136,500.177490234375
20140,500.269989013672
20144,500.385009765625
20148,500.467498779297
20152,500.554992675781
20156,500.607513427734
20160,500.652496337891
20164,500.660003662109
20168,500.644989013672
20172,500.600006103516
20176,500.552490234375
20180,500.5
20184,500.434997558594
20188,500.382507324219
20192,500.342498779297
20196,500.3125
20200,500.282501220703
20204,500.252502441406
20208,500.225006103516
20212,500.207489013672
20216,500.177490234375
20220,500.160003662109
20224,500.147491455078
20228,500.142486572266
20232,500.147491455078
20236,500.167510986328
20240,500.184997558594
20244,500.200012207031
20248,500.202514648438
20252,500.209991455078
20256,500.209991455078
20260,500.207489013672
20264,500.207489013672
20268,500.207489013672
20272,500.202514648438
20276,500.202514648438
20280,500.200012207031
20284,500.184997558594
20288,500.174987792969
20292,500.172485351562
20296,500.162506103516
20300,500.152496337891
20304,500.149993896484
20308,500.137512207031
20312,500.125
20316,500.122497558594
20320,500.114990234375
20324,500.105010986328
20328,500.095001220703
20332,500.075012207031
20336,500.077514648438
20340,500.079986572266
20344,500.057495117188
20348,500.052490234375
20352,500.040008544922
20356,500.037506103516
20360,500.040008544922
20364,500.049987792969
20368,500.047485351562
20372,500.054992675781
20376,500.057495117188
20380,500.0625
20384,500.057495117188
20388,500.059997558594
20392,500.065002441406
20396,500.057495117188
20400,500.057495117188
20404,500.049987792969
20408,500.054992675781
20412,500.057495117188
20416,500.075012207031
20420,500.075012207031
20424,500.084991455078
20428,500.077514648438
20432,500.079986572266
20436,500.092498779297
20440,500.107513427734
20444,500.112487792969
20448,500.109985351562
20452,500.119995117188
20456,500.132507324219
20460,500.132507324219
20464,500.142486572266
20468,500.130004882812
20472,500.135009765625
20476,500.140014648438
20480,500.144989013672
20484,500.149993896484
20488,500.154998779297
20492,500.152496337891
20496,500.149993896484
20500,500.144989013672
20504,500.154998779297
20508,500.160003662109
20512,500.170013427734
20516,500.157501220703
20520,500.167510986328
20524,500.174987792969
20528,500.184997558594
20532,500.174987792969
20536,500.177490234375
20540,500.182495117188
20544,500.172485351562
20548,500.160003662109
20552,500.170013427734
20556,500.170013427734
20560,500.174987792969
20564,500.179992675781
20568,500.184997558594
20572,500.1875
20576,500.190002441406
20580,500.195007324219
20584,500.190002441406
20588,500.195007324219
20592,500.204986572266
20596,500.195007324219
20600,500.192504882812
20604,500.1875
20608,500.182495117188
20612,500.184997558594
20616,500.190002441406
20620,500.184997558594
20624,500.195007324219
20628,500.202514648438
20632,500.200012207031
20636,500.207489013672
20640,500.209991455078
20644,500.209991455078
20648,500.217498779297
20652,500.222503662109
20656,500.232513427734
20660,500.230010986328
20664,500.227508544922
20668,500.225006103516
20672,500.230010986328
20676,500.222503662109
20680,500.225006103516
20684,500.214996337891
20688,500.202514648438
20692,500.200012207031
20696,500.192504882812
20700,500.190002441406
20704,500.209991455078
20708,500.209991455078
20712,500.212493896484
20716,500.217498779297
20720,500.217498779297
20724,500.220001220703
20728,500.214996337891
20732,500.200012207031
20736,500.179992675781
20740,500.174987792969
20744,500.165008544922
20748,500.160003662109
20752,500.165008544922
20756,500.160003662109
20760,500.170013427734
20764,500.172485351562
20768,500.174987792969
20772,500.184997558594
20776,500.179992675781
20780,500.172485351562
20784,500.167510986328
20788,500.172485351562
20792,500.182495117188
20796,500.177490234375
20800,500.184997558594
20804,500.177490234375
20808,500.172485351562
20812,500.179992675781
20816,500.172485351562
20820,500.174987792969
20824,500.165008544922
20828,500.147491455078
20832,500.147491455078
20836,500.140014648438
20840,500.130004882812
20844,500.079986572266
20848,500.022491455078
20852,499.950012207031
20856,499.857513427734
20860,499.785003662109
20864,499.734985351562
20868,499.692504882812
20872,499.642486572266
20876,499.607513427734
20880,499.575012207031
20884,499.5625
20888,499.572509765625
20892,499.592498779297
20896,499.652496337891
20900,499.75
20904,499.880004882812
20908,500.019989013672
20912,500.157501220703
20916,500.277496337891
20920,500.392486572266
20924,500.494995117188
20928,500.597503662109
20932,500.667510986328
20936,500.722503662109
20940,500.765014648438
20944,500.772491455078
20948,500.744995117188
20952,500.700012207031
20956,500.657501220703
20960,500.597503662109
20964,500.545013427734
20968,500.497497558594
20972,500.445007324219
20976,500.410003662109
20980,500.372497558594
20984,500.332489013672
20988,500.292510986328
20992,500.25
20996,500.237487792969
21000,500.225006103516
21004,500.202514648438
21008,500.195007324219
21012,500.197509765625
21016,500.207489013672
21020,500.220001220703
21024,500.232513427734
21028,500.237487792969
21032,500.25
21036,500.260009765625
21040,500.25
21044,500.237487792969
21048,500.222503662109
21052,500.217498779297
21056,500.222503662109
21060,500.217498779297
21064,500.212493896484
21068,500.202514648438
21072,500.197509765625
21076,500.204986572266
21080,500.197509765625
21084,500.179992675781
21088,500.179992675781
21092,500.174987792969
21096,500.162506103516
21100,500.149993896484
21104,500.142486572266
21108,500.119995117188
21112,500.109985351562
21116,500.097503662109
21120,500.087493896484
21124,500.077514648438
21128,500.079986572266
21132,500.077514648438
21136,500.0625
21140,500.052490234375
21144,500.057495117188
21148,500.065002441406
21152,500.054992675781
21156,500.049987792969
21160,500.0625
21164,500.059997558594
21168,500.059997558594
21172,500.067504882812
21176,500.070007324219
21180,500.054992675781
21184,500.059997558594
21188,500.052490234375
21192,500.052490234375
21196,500.057495117188
21200,500.065002441406
21204,500.065002441406
21208,500.065002441406
21212,500.095001220703
21216,500.117492675781
21220,500.122497558594
21224,500.142486572266
21228,500.140014648438
21232,500.144989013672
21236,500.147491455078
21240,500.152496337891
21244,500.154998779297
21248,500.149993896484
21252,500.149993896484
21256,500.167510986328
21260,500.157501220703
21264,500.162506103516
21268,500.170013427734
21272,500.165008544922
21276,500.157501220703
21280,500.160003662109
21284,500.179992675781
21288,500.179992675781
21292,500.190002441406
21296,500.197509765625
21300,500.192504882812
21304,500.192504882812
21308,500.202514648438
21312,500.197509765625
21316,500.202514648438
21320,500.202514648438
21324,500.197509765625
21328,500.195007324219
21332,500.202514648438
21336,500.214996337891
21340,500.217498779297
21344,500.214996337891
21348,500.209991455078
21352,500.209991455078
21356,500.200012207031
21360,500.212493896484
21364,500.214996337891
21368,500.207489013672
21372,500.212493896484
21376,500.204986572266
21380,500.200012207031
21384,500.212493896484
21388,500.209991455078
21392,500.204986572266
21396,500.190002441406
21400,500.192504882812
21404,500.195007324219
21408,500.200012207031
21412,500.200012207031
21416,500.209991455078
21420,500.200012207031
21424,500.200012207031
21428,500.200012207031
21432,500.209991455078
21436,500.220001220703
21440,500.220001220703
21444,500.214996337891
21448,500.209991455078
21452,500.227508544922
21456,500.222503662109
21460,500.220001220703
21464,500.222503662109
21468,500.212493896484
21472,500.209991455078
21476,500.197509765625
21480,500.195007324219
21484,500.179992675781
21488,500.184997558594
21492,500.172485351562
21496,500.167510986328
21500,500.192504882812
21504,500.212493896484
21508,500.227508544922
21512,500.220001220703
21516,500.214996337891
21520,500.207489013672
21524,500.204986572266
21528,500.202514648438
21532,500.1875
21536,500.182495117188
21540,500.170013427734
21544,500.165008544922
21548,500.154998779297
21552,500.162506103516
21556,500.160003662109
21560,500.167510986328
21564,500.160003662109
21568,500.170013427734
21572,500.162506103516
21576,500.160003662109
21580,500.167510986328
21584,500.157501220703
21588,500.154998779297
21592,500.154998779297
21596,500.149993896484
21600,500.142486572266
21604,500.147491455078
21608,500.132507324219
21612,500.122497558594
21616,500.137512207031
21620,500.135009765625
21624,500.144989013672
21628,500.142486572266
21632,500.117492675781
21636,500.052490234375
21640,499.987487792969
